15500MHz / Lb(0.95) dB
,h2(m),1000,1000,1000,1000,1000,10000,10000,10000,10000,10000,10000,20000,20000,20000,20000,20000,20000,20000
,h1(m),1.5,15,30,60,1000,1.5,15,30,60,1000,10000,1.5,15,30,60,1000,10000,20000
D (km),FSL
0,-116.243595,-123.907777,-123.788913,-123.654927,-123.380657,0.000000,-143.968838,-143.956475,-143.942721,-143.915153,-143.008642,0.000000,-149.990089,-149.983597,-149.976379,-149.961928,-149.498864,-143.874467,0.000000
1,-119.260693,-127.991923,-127.828458,-127.647071,-127.285766,-119.610688,-144.029642,-143.997377,-143.961509,-143.889717,-141.630506,-116.704731,-150.004824,-149.988283,-149.969899,-149.933116,-148.769959,-138.532481,-116.586312
2,-123.243977,-132.916995,-132.841702,-132.757827,-132.592059,-128.577828,-144.215071,-144.183504,-144.148418,-144.078220,-141.862552,-122.941811,-150.052242,-150.035769,-150.017461,-149.980827,-148.822897,-138.690592,-122.739350
3,-126.255864,-136.276274,-136.245336,-136.211177,-136.143268,-133.923795,-144.511702,-144.481261,-144.447462,-144.379790,-142.233043,-126.789692,-150.130585,-150.114251,-150.096089,-150.059752,-148.911641,-138.956587,-126.360217
4,-128.560948,-138.784947,-138.764884,-138.742845,-138.698960,-137.330683,-144.902743,-144.873766,-144.841614,-144.777234,-142.738843,-129.599177,-150.238745,-150.222590,-150.204650,-150.168732,-149.034799,-139.310549,-128.979566
5,-130.406360,-140.775899,-140.761761,-140.746007,-140.714818,-139.823100,-145.368513,-145.341216,-145.310935,-145.250300,-143.338783,-131.876427,-150.375133,-150.359232,-150.341560,-150.306191,-149.190389,-139.736400,-131.096720
6,-131.938920,-142.422679,-142.411800,-142.399802,-142.376006,-141.763174,-145.881384,-145.857880,-145.831758,-145.778681,-143.999991,-133.805956,-150.537795,-150.522193,-150.504834,-150.470145,-149.375979,-140.217518,-132.828617
7,-133.246678,-143.826005,-143.817381,-143.807880,-143.788961,-143.291712,-146.419660,-146.397841,-146.373582,-146.325123,-144.697406,-135.478726,-150.724494,-150.709226,-150.692256,-150.658296,-149.588791,-140.738236,-134.314549
8,-134.386166,-145.049129,-145.042017,-145.034264,-145.018602,-144.603089,-146.979118,-146.958928,-146.936498,-146.891676,-145.410640,-136.998661,-150.932751,-150.917856,-150.901305,-150.868184,-149.825810,-141.285083,-135.642540
9,-135.395241,-146.133767,-146.127813,-146.121165,-146.107941,-145.752511,-147.547995,-147.529316,-147.508625,-147.467203,-146.124460,-138.355839,-151.160044,-151.145544,-151.129429,-151.097223,-150.083870,-141.876353,-136.837537
10,-136.300377,-147.108677,-147.103605,-147.097846,-147.086503,-146.776839,-148.117301,-148.100085,-148.081003,-148.042740,-146.828052,-139.633004,-151.403749,-151.389675,-151.374031,-151.342769,-150.359854,-142.486406,-137.924679
11,-137.120785,-147.994727,-147.989408,-147.983659,-147.972316,-147.701599,-148.680614,-148.664680,-148.647036,-148.611770,-147.514176,-140.781727,-151.661073,-151.647735,-151.632574,-151.602265,-150.650709,-143.095200,-138.921497
12,-137.870849,-148.807268,-148.802361,-148.796986,-148.786545,-148.545184,-149.233387,-149.218666,-149.202306,-149.169684,-148.155173,-141.883761,-151.920565,-151.908378,-151.894829,-151.867716,-150.953544,-143.697211,-139.861364
13,-138.561721,-149.558177,-149.553492,-149.548430,-149.538594,-149.321340,-149.772589,-149.758984,-149.743851,-149.713616,-148.773277,-142.917808,-152.189077,-152.177308,-152.164230,-152.138040,-151.265656,-144.288424,-140.725044
14,-139.201866,-150.256419,-150.251987,-150.247085,-150.237702,-150.040629,-150.296497,-150.283866,-150.269787,-150.241653,-149.367592,-143.867323,-152.464632,-152.453260,-152.440630,-152.415356,-151.584614,-144.898464,-141.544378
15,-139.798312,-150.909412,-150.905047,-150.900293,-150.891241,-150.711243,-150.804159,-150.792300,-150.779162,-150.752891,-149.937799,-144.750466,-152.745373,-152.734413,-152.722224,-152.697875,-151.908270,-145.510551,-142.332027
16,-140.356579,-151.522954,-151.518618,-151.513973,-151.505013,-151.339830,-151.294857,-151.283931,-151.271530,-151.247034,-150.484328,-145.635733,-153.029742,-153.019169,-153.007433,-152.983951,-152.234662,-146.104259,-143.067588
17,-140.881207,-152.101798,-152.097503,-152.092847,-152.084004,-151.931685,-151.768859,-151.758531,-151.747066,-151.723950,-151.007977,-146.458666,-153.316284,-153.306114,-153.294803,-153.272193,-152.562175,-146.679106,-143.757288
18,-141.376071,-152.649990,-152.645640,-152.640957,-152.632137,-152.491105,-152.226431,-152.216713,-152.205888,-152.184273,-151.509622,-147.226413,-153.603814,-153.594021,-153.583126,-153.561351,-152.879836,-147.234816,-144.439891
19,-141.844363,-153.170851,-153.166383,-153.161651,-153.152753,-153.021814,-152.668007,-152.658806,-152.648584,-152.628118,-151.990511,-147.944921,-153.891269,-153.881837,-153.871336,-153.850374,-153.194023,-147.771524,-145.098061
20,-142.288697,-153.667085,-153.662648,-153.657691,-153.648655,-153.502598,-153.094202,-153.085378,-153.075984,-153.056388,-152.451569,-148.619460,-154.177769,-154.168676,-154.158566,-154.138350,-153.506032,-148.317971,-145.720760
21,-142.711466,-154.141166,-154.136537,-154.131571,-154.122294,-153.982064,-153.484362,-153.478111,-153.471024,-153.456792,-152.894121,-149.276179,-154.462587,-154.453804,-154.444056,-154.424565,-153.815113,-148.863157,-146.311337
22,-143.114680,-154.595163,-154.590373,-154.585226,-154.575706,-154.440486,-153.860323,-153.854199,-153.847384,-153.833811,-153.319224,-149.906927,-154.745055,-154.736585,-154.727199,-154.708403,-154.120654,-149.388531,-146.872629
23,-143.500064,-155.030831,-155.025829,-155.020460,-155.010611,-154.879837,-154.224104,-154.218250,-154.211741,-154.198681,-153.727903,-150.502935,-155.024705,-155.016554,-155.007473,-154.989347,-154.422169,-149.894837,-147.441488
24,-143.869016,-155.449563,-155.444450,-155.438851,-155.428602,-155.301759,-154.576426,-154.570798,-154.564526,-154.552006,-154.121294,-151.067385,-155.301123,-155.293238,-155.284497,-155.266990,-154.719253,-150.382854,-147.996458
25,-144.223009,-155.852832,-155.847484,-155.841663,-155.830939,-155.707679,-154.917859,-154.912429,-154.906384,-154.894298,-154.500162,-151.602967,-155.574032,-155.566396,-155.557940,-155.541025,-155.011632,-150.853408,-148.526505
26,-144.563150,-156.241681,-156.236132,-156.229999,-156.218703,-156.098903,-155.248915,-155.243672,-155.237816,-155.226121,-154.855135,-152.112196,-155.843090,-155.835716,-155.827543,-155.811166,-155.299057,-151.307231,-149.033640
27,-144.890515,-156.618802,-156.613012,-156.606569,-156.594576,-156.478268,-155.570104,-155.565007,-155.559318,-155.547985,-155.187325,-152.597283,-156.108179,-156.101063,-156.093142,-156.077314,-155.581440,-151.745065,-149.519525
28,-145.205980,-156.988982,-156.983013,-156.976207,-156.963582,-156.851325,-155.881887,-155.876938,-155.871413,-155.860414,-155.508896,-153.060120,-156.369168,-156.362239,-156.354601,-156.339233,-155.858695,-152.171492,-149.985676
29,-145.510405,-157.349816,-157.343760,-157.336655,-157.323555,-157.215556,-156.184761,-156.179927,-156.174568,-156.163836,-155.820363,-153.502406,-156.625943,-156.619253,-156.611713,-156.596898,-156.130687,-152.601763,-150.433487
30,-145.804517,-157.700834,-157.694857,-157.687661,-157.674510,-157.570596,-156.479167,-156.474448,-156.469206,-156.458694,-156.122371,-153.925772,-156.878429,-156.871934,-156.864771,-156.850252,-156.397507,-153.017213,-150.895792
31,-146.089027,-158.042490,-158.036846,-158.029704,-158.016608,-157.916420,-156.765540,-156.760905,-156.755746,-156.745474,-156.415380,-154.317595,-157.126725,-157.120399,-157.113339,-157.099176,-156.659155,-153.418638,-151.347808
32,-146.364518,-158.376414,-158.371149,-158.364106,-158.351081,-158.254175,-157.044182,-157.039632,-157.034579,-157.024519,-156.699874,-154.693318,-157.370559,-157.364396,-157.357580,-157.343924,-156.915762,-153.806655,-151.783062
33,-146.631557,-158.697130,-158.696472,-158.691022,-158.677922,-158.583880,-157.315519,-157.311079,-157.306115,-157.296224,-156.976353,-155.054678,-157.610195,-157.604241,-157.597565,-157.584257,-157.167139,-154.181933,-152.202652
34,-146.890616,-159.007289,-159.007060,-159.004621,-158.997010,-158.905600,-157.579956,-157.575554,-157.570687,-157.560915,-157.245161,-155.402315,-157.845610,-157.839769,-157.833294,-157.820430,-157.413588,-154.545171,-152.607438
35,-147.142184,-159.309998,-159.310117,-159.307790,-159.302546,-159.219057,-157.837711,-157.833391,-157.828607,-157.818966,-157.506780,-155.737839,-158.076837,-158.071229,-158.064871,-158.052267,-157.655205,-154.896862,-152.998290
36,-147.386675,-159.606648,-159.607036,-159.604794,-159.599582,-159.527119,-158.089174,-158.084902,-158.080147,-158.070648,-157.761491,-156.061339,-158.303952,-158.298427,-158.292305,-158.279932,-157.891949,-155.237704,-153.376059
37,-147.624484,-159.895952,-159.896591,-159.894387,-159.889156,-159.826658,-158.334600,-158.330381,-158.325663,-158.316277,-158.009666,-156.374102,-158.527023,-158.521660,-158.515525,-158.503437,-158.124239,-155.568052,-153.741396
38,-147.855958,-160.178515,-160.179317,-160.177140,-160.171841,-160.118563,-158.574277,-158.570097,-158.565461,-158.556120,-158.251611,-156.676308,-158.746143,-158.740849,-158.734885,-158.723075,-158.351710,-155.888550,-154.095044
39,-148.081407,-160.455538,-160.456523,-160.454340,-160.448977,-160.405307,-158.808456,-158.804277,-158.799669,-158.790427,-158.487656,-156.969041,-158.957924,-158.953754,-158.949103,-158.938740,-158.574836,-156.199616,-154.437576
40,-148.301186,-160.727391,-160.728486,-160.726278,-160.720838,-160.687273,-159.037347,-159.033218,-159.028642,-159.019446,-158.718040,-157.252631,-159.157224,-159.153122,-159.148537,-159.139422,-158.793580,-156.501696,-154.776032
41,-148.515544,-160.993926,-160.995135,-160.992930,-160.987325,-160.960332,-159.261227,-159.257110,-159.252552,-159.243440,-158.943035,-157.527591,-159.353200,-159.349163,-159.344729,-159.335717,-159.008102,-156.795226,-155.115455
42,-148.724736,-161.253382,-161.254650,-161.252362,-161.246679,-161.221013,-159.480253,-159.476178,-159.471643,-159.462535,-159.162850,-157.794611,-159.546005,-159.542028,-159.537589,-159.528767,-159.218571,-157.080646,-155.444735
43,-148.929000,-161.508094,-161.509424,-161.507056,-161.501189,-161.476907,-159.694671,-159.690619,-159.686068,-159.677048,-159.377759,-158.053559,-159.735636,-159.731717,-159.727381,-159.718701,-159.425081,-157.350542,-155.764370
44,-149.128577,-161.758309,-161.759677,-161.757217,-161.751220,-161.728248,-159.904673,-159.900629,-159.896115,-159.887081,-159.587966,-158.305439,-159.922174,-159.918334,-159.914016,-159.905407,-159.627697,-157.611169,-156.074792
45,-149.323675,-162.004239,-162.005611,-162.003055,-161.996820,-161.975218,-160.110422,-160.106392,-160.101875,-160.092911,-159.793666,-158.550352,-160.105731,-160.101872,-160.097667,-160.089198,-159.819789,-157.864589,-156.376523
46,-149.514488,-162.246079,-162.247442,-162.244755,-162.238321,-162.218041,-160.312090,-160.308055,-160.303591,-160.294534,-159.995036,-158.788818,-160.286322,-160.282552,-160.278360,-160.269969,-160.003489,-158.111709,-156.669800
47,-149.701247,-162.484078,-162.485337,-162.482518,-162.475871,-162.456903,-160.509831,-160.505795,-160.501301,-160.492280,-160.192276,-159.021011,-160.464062,-160.460329,-160.456146,-160.447876,-160.184109,-158.352922,-156.955181
48,-149.883990,-162.718238,-162.719468,-162.716525,-162.709635,-162.691990,-160.703815,-160.699771,-160.695281,-160.686256,-160.385540,-159.247336,-160.639005,-160.635295,-160.631183,-160.622969,-160.361672,-158.588214,-157.232973
49,-150.063004,-162.947206,-162.948334,-162.945218,-162.938063,-162.921644,-160.894162,-160.890116,-160.885595,-160.876593,-160.574959,-159.467942,-160.811191,-160.807529,-160.803464,-160.795313,-160.536268,-158.817991,-157.503578
50,-150.238417,-163.172216,-163.173186,-163.169868,-163.162409,-163.147217,-161.081016,-161.076961,-161.072456,-161.063394,-160.760737,-159.683221,-160.980730,-160.977102,-160.973067,-160.964993,-160.707975,-159.042124,-157.767125
51,-150.410355,-163.393832,-163.394614,-163.391098,-163.383353,-163.369287,-161.264521,-161.260462,-161.255923,-161.246856,-160.942973,-159.893346,-161.147672,-161.144075,-161.140071,-161.132069,-160.876895,-159.261220,-158.024132
52,-150.578967,-163.612219,-163.612781,-163.608999,-163.600874,-163.588053,-161.444767,-161.440696,-161.436159,-161.427056,-161.121840,-160.098608,-161.312080,-161.308508,-161.304530,-161.296597,-161.043087,-159.475369,-158.274809
53,-150.744347,-163.827461,-163.827748,-163.823803,-163.815269,-163.803660,-161.621900,-161.617806,-161.613264,-161.604122,-161.297383,-160.299170,-161.474013,-161.470474,-161.466530,-161.458634,-161.206621,-159.684858,-158.519355
54,-150.906648,-164.039729,-164.039694,-164.035413,-164.026526,-164.016084,-161.796010,-161.791916,-161.787336,-161.778172,-161.469799,-160.495248,-161.633552,-161.630030,-161.626121,-161.618261,-161.367573,-159.890001,-158.758093
55,-151.065995,-164.249160,-164.248771,-164.244165,-164.234901,-164.225596,-161.967213,-161.963097,-161.958510,-161.949302,-161.639179,-160.687049,-161.790745,-161.787247,-161.783347,-161.775538,-161.526028,-160.090093,-158.991675
56,-151.222406,-164.455745,-164.454987,-164.450085,-164.440369,-164.432269,-162.135619,-162.131487,-162.126868,-162.117612,-161.805630,-160.868647,-161.945666,-161.942178,-161.938295,-161.930531,-161.682031,-160.286327,-159.219013
57,-151.376160,-164.659832,-164.658512,-164.653279,-164.643125,-164.636165,-162.301288,-162.297145,-162.292515,-162.283208,-161.969245,-161.040821,-162.098342,-162.094871,-162.091015,-162.083278,-161.835661,-160.478455,-159.441761
58,-151.527125,-164.861217,-164.859498,-164.853848,-164.843221,-164.837417,-162.464342,-162.460178,-162.455519,-162.446162,-162.130130,-161.209632,-162.248859,-162.245389,-162.241550,-162.233851,-161.986992,-160.666700,-159.659328
59,-151.675562,-165.060225,-165.057923,-165.051893,-165.040683,-165.036112,-162.624872,-162.620673,-162.616008,-162.606580,-162.288374,-161.375221,-162.397246,-162.393801,-162.389974,-162.382295,-162.136057,-160.851249,-159.866061
60,-151.821517,-165.256898,-165.254039,-165.247532,-165.235766,-165.232339,-162.782926,-162.778698,-162.773989,-162.764546,-162.444078,-161.537693,-162.543579,-162.540144,-162.536318,-162.528669,-162.282943,-161.032121,-160.067000
61,-151.965048,-165.451078,-165.447458,-165.440522,-165.428353,-165.425974,-162.938602,-162.934359,-162.929621,-162.920102,-162.597292,-161.697172,-162.687891,-162.684465,-162.680660,-162.673024,-162.427694,-161.209481,-160.263725
62,-152.106238,-165.642850,-165.638459,-165.631050,-165.618199,-165.616973,-163.091974,-163.087702,-163.082940,-163.073366,-162.748142,-161.853746,-162.830259,-162.826844,-162.823032,-162.815402,-162.570399,-161.383511,-160.456137
63,-152.245177,-165.832521,-165.827329,-165.819354,-165.805827,-165.805760,-163.243126,-163.238822,-163.234032,-163.224385,-162.896652,-162.007552,-162.970700,-162.967277,-162.963533,-162.955872,-162.711031,-161.554247,-160.644783
64,-152.381929,-166.020166,-166.014067,-166.005545,-165.991385,-165.992371,-163.392099,-163.387777,-163.382946,-163.373256,-163.042932,-162.158648,-163.109271,-163.105861,-163.102092,-163.094467,-162.849722,-161.721863,-160.829813
65,-152.516623,-166.205942,-166.198778,-166.189698,-166.174852,-166.176859,-163.538980,-163.534625,-163.529759,-163.519989,-163.187042,-162.307151,-163.246033,-163.242626,-163.238853,-163.231226,-162.986484,-161.886436,-161.011308
66,-152.649149,-166.389678,-166.381535,-166.371767,-166.356186,-166.359304,-163.683828,-163.679436,-163.674538,-163.664699,-163.329043,-162.453140,-163.381014,-163.377611,-163.373852,-163.366217,-163.121396,-162.048081,-161.189229
67,-152.779730,-166.571671,-166.562479,-166.551939,-166.535595,-166.539767,-163.826702,-163.822281,-163.817346,-163.807425,-163.468994,-162.596690,-163.514268,-163.510879,-163.507059,-163.499474,-163.254464,-162.206870,-161.364008
68,-152.908428,-166.751992,-166.741449,-166.730294,-166.713099,-166.718323,-163.967647,-163.963197,-163.958228,-163.948239,-163.606973,-162.737902,-163.645818,-163.642407,-163.638621,-163.631020,-163.385778,-162.362952,-161.535333
69,-153.035165,-166.930515,-166.918701,-166.906798,-166.888772,-166.894998,-164.106727,-164.102242,-164.097244,-164.087177,-163.743016,-162.876815,-163.775741,-163.772285,-163.768519,-163.760924,-163.515358,-162.516348,-161.703531
70,-153.160115,-167.107474,-167.094229,-167.081504,-167.062633,-167.069857,-164.244004,-164.239487,-164.234444,-164.224309,-163.877199,-163.013537,-163.904024,-163.900603,-163.896807,-163.889189,-163.643231,-162.667178,-161.868777
71,-153.283291,-167.282874,-167.268161,-167.254600,-167.234811,-167.242957,-164.379526,-164.374961,-164.369878,-164.359662,-164.009571,-163.148128,-164.030755,-164.027333,-164.023546,-164.015888,-163.769462,-162.815527,-162.031229
72,-153.404745,-167.456777,-167.440531,-167.425972,-167.405189,-167.414394,-164.513315,-164.508738,-164.503608,-164.493311,-164.140165,-163.280671,-164.155922,-164.152497,-164.148690,-164.141053,-163.894089,-162.961457,-162.190668
73,-153.524534,-167.629250,-167.611178,-167.595776,-167.574045,-167.584101,-164.645454,-164.640837,-164.635675,-164.625294,-164.269062,-163.411163,-164.279614,-164.276167,-164.272351,-164.264706,-164.017152,-163.105046,-162.347372
74,-153.642682,-167.800318,-167.780481,-167.764068,-167.741328,-167.752214,-164.775966,-164.771313,-164.766113,-164.755646,-164.396280,-163.539721,-164.401814,-164.398378,-164.394554,-164.386883,-164.138674,-163.246371,-162.501509
75,-153.759262,-167.970075,-167.948293,-167.930805,-167.906987,-167.918763,-164.904903,-164.900217,-164.894972,-164.884428,-164.521870,-163.666388,-164.522595,-164.519129,-164.515350,-164.507632,-164.258705,-163.385497,-162.653372
76,-153.874281,-168.138521,-168.114699,-168.096110,-168.071196,-168.083859,-165.032317,-165.027591,-165.022297,-165.011663,-164.645885,-163.791219,-164.641978,-164.638557,-164.634675,-164.626977,-164.377298,-163.522472,-162.802169
77,-153.987804,-168.331744,-168.279765,-168.260005,-168.233972,-168.247308,-165.158220,-165.153458,-165.148133,-165.137413,-164.768357,-163.914192,-164.760015,-164.756530,-164.752664,-164.744944,-164.494428,-163.657377,-162.948844
78,-154.099881,-168.584557,-168.446415,-168.425557,-168.398500,-168.412711,-165.282678,-165.277872,-165.272496,-165.261699,-164.889340,-164.035559,-164.876655,-164.873185,-164.869350,-164.861565,-164.610197,-163.790278,-163.093133
79,-154.210476,-168.836979,-168.612139,-168.590145,-168.561938,-168.577153,-165.405715,-165.400869,-165.395446,-165.384557,-165.008855,-164.155209,-164.992012,-164.988536,-164.984674,-164.976884,-164.724564,-163.921215,-163.235185
80,-154.319738,-169.088944,-168.776776,-168.753549,-168.724194,-168.740274,-165.527363,-165.522479,-165.517013,-165.506039,-165.126955,-164.273183,-165.106102,-165.102609,-165.098716,-165.090920,-164.837662,-164.043644,-163.375016
81,-154.427617,-169.340350,-168.940372,-168.915830,-168.885309,-168.902183,-165.647653,-165.642736,-165.637231,-165.626155,-165.243656,-164.389598,-165.218943,-165.215434,-165.211545,-165.203701,-164.949411,-164.162792,-163.512704
82,-154.534141,-169.591213,-169.102794,-169.077018,-169.045295,-169.062922,-165.766649,-165.761691,-165.756138,-165.744968,-165.359020,-164.504399,-165.330535,-165.327009,-165.323086,-165.315247,-165.059912,-164.280349,-163.648348
83,-154.639479,-169.841772,-169.320415,-169.237041,-169.204176,-169.222482,-165.884345,-165.879347,-165.873751,-165.862494,-165.473061,-164.617766,-165.440924,-165.437408,-165.433473,-165.425607,-165.169151,-164.396341,-163.781897
84,-154.743449,-170.091721,-169.559152,-169.396108,-169.361954,-169.380936,-166.000797,-165.995764,-165.990115,-165.978766,-165.585822,-164.729559,-165.550199,-165.546621,-165.542676,-165.534694,-165.277169,-164.510828,-163.913531
