9400MHz / Lb(0.05) dB
,h2(m),1000,1000,1000,1000,1000,10000,10000,10000,10000,10000,10000,20000,20000,20000,20000,20000,20000,20000
,h1(m),1.5,15,30,60,1000,1.5,15,30,60,1000,10000,1.5,15,30,60,1000,10000,20000
D (km),FSL
0,111.9,107.8,107.6,107.5,107.2,0,127.8,127.8,127.8,127.8,126.9,0,133.8,133.8,133.8,133.8,133.4,127.8,0
1,114.9,110.4,110.4,110.4,110.3,109.5,127.8,127.8,127.8,127.8,127.4,111.5,133.8,133.8,133.8,133.8,133.6,130.2,111.7
2,118.9,114,114,114,114,114.3,128,128,127.9,127.9,127.6,117.3,133.9,133.9,133.9,133.9,133.7,130.3,117.6
3,121.9,116.9,116.9,116.9,116.9,117.2,128.1,128.1,128.1,128.1,127.8,120.6,133.9,133.9,133.9,133.9,133.7,130.5,121
4,124.2,119.1,119.1,119.1,119.1,119.4,128.4,128.4,128.4,128.3,128,122.8,134,134,134,134,133.8,130.7,123.4
5,126.1,121,121,121,121,121.2,128.6,128.6,128.6,128.6,128.3,124.5,134.1,134.1,134.1,134,133.9,130.9,125.2
6,127.6,122.5,122.5,122.5,122.5,122.7,129,129,129,128.9,128.7,125.9,134.2,134.1,134.1,134.1,134,131.2,126.6
7,128.9,123.8,123.8,123.8,123.8,123.9,129.3,129.3,129.3,129.3,129.1,127,134.3,134.3,134.3,134.2,134.1,131.6,127.8
8,130,124.9,124.9,124.9,124.9,125,129.7,129.7,129.7,129.7,129.5,128,134.4,134.4,134.4,134.4,134.2,131.9,128.9
9,131.1,125.9,125.9,125.9,125.9,126,130.1,130.1,130,130,129.9,128.8,134.5,134.5,134.5,134.5,134.4,132.3,129.8
10,132,126.8,126.8,126.8,126.8,126.9,130.4,130.4,130.4,130.4,130.3,129.5,134.7,134.7,134.7,134.7,134.5,132.6,130.6
11,132.8,127.7,127.7,127.7,127.7,127.8,130.8,130.8,130.8,130.8,130.7,130.2,134.8,134.8,134.8,134.8,134.7,132.9,131.3
12,133.5,128.4,128.4,128.4,128.4,128.5,131.2,131.2,131.2,131.2,131.1,130.8,135,135,135,135,134.8,133.3,131.9
13,134.2,129.1,129.1,129.1,129.1,129.2,131.6,131.6,131.6,131.6,131.5,131.3,135.1,135.1,135.1,135.1,135,133.6,132.5
14,134.9,129.8,129.8,129.8,129.8,129.9,132,132,132,132,131.9,131.8,135.3,135.3,135.3,135.3,135.2,133.9,133
15,135.5,130.4,130.4,130.4,130.4,130.5,132.4,132.4,132.4,132.4,132.3,132.3,135.5,135.5,135.5,135.5,135.4,134.3,133.5
16,136,131,131,131,131,131,132.7,132.7,132.7,132.7,132.7,132.7,135.7,135.7,135.7,135.7,135.6,134.6,134
17,136.5,131.5,131.5,131.5,131.5,131.6,133.1,133.1,133.1,133.1,133,133.1,135.9,135.9,135.9,135.9,135.8,134.9,134.4
18,137,132,132,132,132,132.1,133.4,133.4,133.4,133.4,133.4,133.5,136.1,136.1,136.1,136.1,136,135.1,134.8
19,137.5,132.5,132.5,132.5,132.5,132.6,133.8,133.8,133.8,133.8,133.7,133.9,136.3,136.3,136.3,136.3,136.2,135.4,135.2
20,137.9,133,133,133,133,133,134.1,134.1,134.1,134.1,134.1,134.2,136.5,136.5,136.5,136.4,136.4,135.7,135.5
21,138.4,133.4,133.4,133.4,133.4,133.5,134.4,134.4,134.4,134.4,134.4,134.6,136.6,136.6,136.6,136.6,136.6,136,135.8
22,138.8,133.8,133.8,133.8,133.8,133.9,134.8,134.8,134.8,134.8,134.7,134.9,136.8,136.8,136.8,136.8,136.8,136.2,136.2
23,139.2,134.2,134.2,134.2,134.2,134.3,135.1,135.1,135.1,135.1,135,135.2,137,137,137,137,137,136.5,136.5
24,139.5,134.6,134.6,134.6,134.6,134.7,135.4,135.4,135.4,135.4,135.3,135.5,137.2,137.2,137.2,137.2,137.2,136.7,136.8
25,139.9,135,135,135,135,135,135.7,135.7,135.7,135.7,135.6,135.8,137.4,137.4,137.4,137.4,137.4,137,137
26,140.2,135.3,135.3,135.3,135.3,135.4,135.9,135.9,135.9,135.9,135.9,136.1,137.6,137.6,137.6,137.6,137.5,137.2,137.3
27,140.5,135.7,135.7,135.7,135.7,135.7,136.2,136.2,136.2,136.2,136.2,136.4,137.8,137.8,137.8,137.8,137.7,137.4,137.6
28,140.9,136,136,136,136,136.1,136.5,136.5,136.5,136.5,136.4,136.6,138,138,138,138,137.9,137.7,137.8
29,141.2,136.3,136.3,136.3,136.3,136.4,136.8,136.8,136.8,136.8,136.7,136.9,138.2,138.2,138.2,138.2,138.1,137.9,138
30,141.5,136.6,136.6,136.6,136.6,136.7,137,137,137,137,137,137.1,138.4,138.4,138.4,138.4,138.3,138.1,138.3
31,141.7,136.9,136.9,136.9,136.9,137,137.3,137.3,137.3,137.3,137.2,137.4,138.6,138.6,138.6,138.6,138.5,138.3,138.5
32,142,137.2,137.2,137.2,137.2,137.3,137.5,137.5,137.5,137.5,137.5,137.6,138.7,138.7,138.7,138.7,138.7,138.5,138.7
33,142.3,137.5,137.5,137.5,137.5,137.6,137.8,137.8,137.8,137.8,137.7,137.8,138.9,138.9,138.9,138.9,138.9,138.7,138.9
34,142.5,137.7,137.8,137.8,137.8,137.9,138,138,138,138,137.9,138.1,139.1,139.1,139.1,139.1,139,138.9,139.1
35,142.8,138,138,138,138,138.1,138.2,138.2,138.2,138.2,138.2,138.3,139.3,139.3,139.3,139.3,139.2,139.1,139.3
36,143,138.2,138.3,138.3,138.3,138.4,138.4,138.4,138.4,138.4,138.4,138.5,139.4,139.4,139.4,139.4,139.4,139.3,139.5
37,143.3,138.5,138.5,138.5,138.5,138.6,138.7,138.7,138.7,138.7,138.6,138.7,139.6,139.6,139.6,139.6,139.6,139.4,139.7
38,143.5,138.7,138.7,138.8,138.8,138.9,138.9,138.9,138.9,138.9,138.8,138.9,139.8,139.8,139.8,139.8,139.7,139.6,139.9
39,143.7,138.9,139,139,139,139.1,139.1,139.1,139.1,139.1,139,139.1,140,140,140,140,139.9,139.8,140.1
40,144,139.2,139.2,139.2,139.2,139.3,139.3,139.3,139.3,139.3,139.2,139.3,140.1,140.1,140.1,140.1,140.1,140,140.2
41,144.2,139.4,139.4,139.4,139.5,139.6,139.5,139.5,139.5,139.5,139.4,139.5,140.3,140.3,140.3,140.3,140.2,140.1,140.4
42,144.4,139.6,139.6,139.6,139.7,139.8,139.7,139.7,139.7,139.7,139.6,139.7,140.5,140.5,140.5,140.5,140.4,140.3,140.6
43,144.6,139.8,139.8,139.9,139.9,140,139.9,139.9,139.9,139.9,139.8,139.9,140.6,140.6,140.6,140.6,140.6,140.5,140.7
44,144.8,140,140,140.1,140.1,140.2,140.1,140.1,140.1,140.1,140,140.1,140.8,140.8,140.8,140.8,140.7,140.6,140.9
45,145,140.2,140.2,140.3,140.3,140.4,140.3,140.3,140.3,140.3,140.2,140.2,140.9,140.9,140.9,140.9,140.9,140.8,141.1
46,145.2,140.4,140.4,140.5,140.5,140.6,140.4,140.4,140.4,140.4,140.4,140.4,141.1,141.1,141.1,141.1,141,141,141.2
47,145.4,140.6,140.6,140.6,140.7,140.8,140.6,140.6,140.6,140.6,140.6,140.6,141.2,141.2,141.2,141.2,141.2,141.1,141.4
48,145.5,140.7,140.8,140.8,140.9,141,140.8,140.8,140.8,140.8,140.7,140.7,141.4,141.4,141.4,141.4,141.3,141.3,141.5
49,145.7,140.9,141,141,141.1,141.2,141,141,141,141,140.9,140.9,141.5,141.5,141.5,141.5,141.5,141.4,141.7
50,145.9,141.1,141.2,141.2,141.2,141.4,141.1,141.1,141.1,141.1,141.1,141.1,141.7,141.7,141.7,141.7,141.6,141.6,141.8
51,146.1,141.3,141.3,141.4,141.4,141.6,141.3,141.3,141.3,141.3,141.2,141.2,141.8,141.8,141.8,141.8,141.8,141.7,141.9
52,146.2,141.4,141.5,141.5,141.6,141.8,141.5,141.5,141.5,141.5,141.4,141.4,142,142,142,142,141.9,141.8,142.1
53,146.4,141.6,141.7,141.7,141.7,141.9,141.6,141.6,141.6,141.6,141.6,141.5,142.1,142.1,142.1,142.1,142,142,142.2
54,146.6,141.7,141.8,141.9,141.9,142.1,141.8,141.8,141.8,141.8,141.7,141.7,142.2,142.2,142.2,142.2,142.2,142.1,142.4
55,146.7,141.9,142,142,142.1,142.3,141.9,141.9,141.9,141.9,141.9,141.8,142.4,142.4,142.4,142.4,142.3,142.3,142.5
56,146.9,142,142.1,142.2,142.2,142.5,142.1,142.1,142.1,142.1,142,142,142.5,142.5,142.5,142.5,142.5,142.4,142.6
57,147,142.2,142.3,142.3,142.4,142.6,142.3,142.3,142.2,142.2,142.2,142.1,142.6,142.6,142.6,142.6,142.6,142.5,142.8
58,147.2,142.3,142.4,142.5,142.5,142.8,142.4,142.4,142.4,142.4,142.3,142.2,142.8,142.8,142.8,142.8,142.7,142.7,142.9
59,147.3,142.4,142.5,142.6,142.7,142.9,142.5,142.5,142.5,142.5,142.5,142.4,142.9,142.9,142.9,142.9,142.8,142.8,143
60,147.5,142.6,142.7,142.7,142.8,143.1,142.7,142.7,142.7,142.7,142.6,142.5,143,143,143,143,143,142.9,143.1
61,147.6,142.7,142.8,142.9,143,143.3,142.8,142.8,142.8,142.8,142.7,142.7,143.2,143.2,143.2,143.2,143.1,143,143.3
62,147.8,142.8,142.9,143,143.1,143.4,143,143,143,143,142.9,142.8,143.3,143.3,143.3,143.3,143.2,143.2,143.4
63,147.9,142.9,143.1,143.2,143.2,143.6,143.1,143.1,143.1,143.1,143,142.9,143.4,143.4,143.4,143.4,143.4,143.3,143.5
64,148,143,143.2,143.3,143.4,143.7,143.2,143.2,143.2,143.2,143.2,143,143.5,143.5,143.5,143.5,143.5,143.4,143.6
65,148.2,143.1,143.3,143.4,143.5,143.9,143.4,143.4,143.4,143.4,143.3,143.2,143.7,143.7,143.7,143.7,143.6,143.5,143.7
66,148.3,143.3,143.4,143.5,143.6,144,143.5,143.5,143.5,143.5,143.4,143.3,143.8,143.8,143.8,143.8,143.7,143.6,143.8
67,148.4,143.4,143.5,143.6,143.8,144.1,143.6,143.6,143.6,143.6,143.5,143.4,143.9,143.9,143.9,143.9,143.8,143.8,144
68,148.6,143.5,143.7,143.8,143.9,144.3,143.8,143.8,143.8,143.8,143.7,143.5,144,144,144,144,143.9,143.9,144.1
69,148.7,143.6,143.8,143.9,144,144.4,143.9,143.9,143.9,143.9,143.8,143.7,144.1,144.1,144.1,144.1,144.1,144,144.2
70,148.8,143.6,143.9,144,144.1,144.6,144,144,144,144,143.9,143.8,144.2,144.2,144.2,144.2,144.2,144.1,144.3
71,148.9,143.7,144,144.1,144.2,144.7,144.2,144.2,144.2,144.1,144,143.9,144.4,144.4,144.4,144.4,144.3,144.2,144.4
72,149.1,143.8,144.1,144.2,144.3,144.8,144.3,144.3,144.3,144.3,144.2,144,144.5,144.5,144.5,144.5,144.4,144.3,144.5
73,149.2,143.9,144.2,144.3,144.4,145,144.4,144.4,144.4,144.4,144.3,144.1,144.6,144.6,144.6,144.6,144.5,144.4,144.6
74,149.3,144,144.3,144.4,144.5,145.1,144.5,144.5,144.5,144.5,144.4,144.2,144.7,144.7,144.7,144.7,144.6,144.5,144.7
75,149.4,144.1,144.3,144.5,144.7,145.2,144.6,144.6,144.6,144.6,144.5,144.3,144.8,144.8,144.8,144.8,144.7,144.6,144.8
76,149.5,144.1,144.4,144.6,144.8,145.3,144.8,144.8,144.8,144.7,144.6,144.5,144.9,144.9,144.9,144.9,144.8,144.7,144.9
77,149.6,144.2,144.5,144.7,144.8,145.5,144.9,144.9,144.9,144.9,144.8,144.6,145,145,145,145,144.9,144.8,145
78,149.8,144.4,144.6,144.8,144.9,145.6,145,145,145,145,144.9,144.7,145.1,145.1,145.1,145.1,145,144.9,145.1
79,149.9,144.5,144.7,144.8,145,145.7,145.1,145.1,145.1,145.1,145,144.8,145.2,145.2,145.2,145.2,145.1,145,145.2
80,150,144.7,144.7,144.9,145.1,145.8,145.2,145.2,145.2,145.2,145.1,144.9,145.3,145.3,145.3,145.3,145.2,145.1,145.3
81,150.1,144.9,144.8,145,145.2,145.9,145.3,145.3,145.3,145.3,145.2,145,145.4,145.4,145.4,145.4,145.3,145.2,145.4
82,150.2,145,144.9,145.1,145.3,146.1,145.4,145.4,145.4,145.4,145.3,145.1,145.5,145.5,145.5,145.5,145.4,145.3,145.5
83,150.3,145.2,145,145.1,145.4,146.2,145.5,145.5,145.5,145.5,145.4,145.2,145.6,145.6,145.6,145.6,145.5,145.4,145.6
84,150.4,145.3,145.2,145.2,145.5,146.3,145.6,145.6,145.6,145.6,145.5,145.3,145.7,145.7,145.7,145.7,145.6,145.5,145.7
85,150.5,145.5,145.3,145.3,145.5,146.4,145.7,145.7,145.7,145.7,145.6,145.4,145.8,145.8,145.8,145.8,145.7,145.6,145.8
86,150.6,145.6,145.5,145.4,145.6,146.5,145.9,145.9,145.9,145.8,145.7,145.5,145.9,145.9,145.9,145.9,145.8,145.7,145.9
87,150.7,145.8,145.6,145.5,145.7,146.6,146,146,146,146,145.8,145.6,146,146,146,146,145.9,145.8,146
88,150.8,145.9,145.8,145.7,145.8,146.7,146.1,146.1,146.1,146.1,145.9,145.7,146.1,146.1,146.1,146.1,146,145.9,146.1
89,150.9,146.1,145.9,145.8,145.8,146.8,146.2,146.2,146.2,146.2,146,145.8,146.2,146.2,146.2,146.2,146.1,146,146.1
90,151,146.2,146.1,146,145.9,146.9,146.3,146.3,146.3,146.3,146.1,145.9,146.3,146.3,146.3,146.3,146.2,146.1,146.2
91,151.1,146.4,146.2,146.1,146,147,146.4,146.4,146.4,146.4,146.2,145.9,146.4,146.4,146.4,146.4,146.3,146.2,146.3
92,151.2,146.5,146.4,146.3,146.1,147.1,146.5,146.5,146.5,146.5,146.3,146,146.5,146.5,146.5,146.5,146.4,146.3,146.4
93,151.3,146.7,146.5,146.4,146.3,147.2,146.6,146.6,146.6,146.6,146.4,146.1,146.6,146.6,146.6,146.6,146.5,146.3,146.5
94,151.4,146.8,146.6,146.5,146.4,147.3,146.7,146.7,146.7,146.6,146.5,146.2,146.6,146.6,146.6,146.6,146.6,146.4,146.6
95,151.5,147,146.8,146.7,146.6,147.4,146.8,146.7,146.7,146.7,146.6,146.3,146.7,146.7,146.7,146.7,146.6,146.5,146.7
96,151.6,147.2,146.9,146.8,146.7,147.5,146.8,146.8,146.8,146.8,146.7,146.4,146.8,146.8,146.8,146.8,146.7,146.6,146.7
97,151.6,147.3,147.1,147,146.8,147.6,146.9,146.9,146.9,146.9,146.8,146.5,146.9,146.9,146.9,146.9,146.8,146.7,146.8
98,151.7,147.5,147.2,147.1,147,147.7,147,147,147,147,146.9,146.6,147,147,147,147,146.9,146.8,146.9
99,151.8,147.7,147.3,147.2,147.1,147.8,147.1,147.1,147.1,147.1,147,146.6,147.1,147.1,147.1,147.1,147,146.8,147
100,151.9,147.8,147.5,147.4,147.2,147.8,147.2,147.2,147.2,147.2,147.1,146.7,147.2,147.2,147.2,147.2,147.1,146.9,147.1
101,152,148,147.6,147.5,147.4,147.9,147.3,147.3,147.3,147.3,147.1,146.8,147.3,147.3,147.3,147.2,147.2,147,147.1
102,152.1,148.2,147.7,147.6,147.5,148,147.4,147.4,147.4,147.4,147.3,146.9,147.3,147.3,147.3,147.3,147.2,147.1,147.2
103,152.2,148.4,147.9,147.8,147.6,148.1,147.5,147.5,147.5,147.5,147.4,147,147.4,147.4,147.4,147.4,147.3,147.2,147.3
104,152.3,148.6,148,147.9,147.8,148.2,147.6,147.6,147.6,147.6,147.4,147.1,147.5,147.5,147.5,147.5,147.4,147.3,147.4
105,152.3,148.7,148.1,148,147.9,148.3,147.7,147.7,147.7,147.7,147.5,147.1,147.6,147.6,147.6,147.6,147.5,147.3,147.4
106,152.4,148.9,148.3,148.2,148,148.3,147.7,147.7,147.7,147.7,147.6,147.2,147.7,147.7,147.7,147.7,147.6,147.4,147.5
107,152.5,149,148.4,148.3,148.1,148.4,147.8,147.8,147.8,147.8,147.7,147.3,147.7,147.7,147.7,147.7,147.6,147.5,147.6
108,152.6,149.1,148.5,148.4,148.3,148.5,147.9,147.9,147.9,147.9,147.8,147.4,147.8,147.8,147.8,147.8,147.7,147.6,147.7
109,152.7,149.2,148.6,148.5,148.4,148.6,148,148,148,148,147.9,147.5,147.9,147.9,147.9,147.9,147.8,147.6,147.7
110,152.7,149.3,148.8,148.7,148.5,148.6,148.1,148.1,148.1,148.1,147.9,147.5,148,148,148,148,147.9,147.7,147.8
111,152.8,149.4,148.9,148.8,148.6,148.7,148.2,148.2,148.2,148.2,148,147.6,148.1,148.1,148.1,148.1,148,147.8,147.9
112,152.9,149.5,149,148.9,148.7,148.7,148.3,148.3,148.3,148.2,148.1,147.7,148.1,148.1,148.1,148.1,148,147.9,148
113,153,149.6,149.1,149,148.8,148.8,148.3,148.3,148.3,148.3,148.2,147.8,148.2,148.2,148.2,148.2,148.1,147.9,148
114,153.1,149.7,149.2,149.1,149,148.9,148.4,148.4,148.4,148.4,148.3,147.8,148.3,148.3,148.3,148.3,148.2,148,148.1
115,153.1,149.8,149.3,149.2,149.1,148.9,148.5,148.5,148.5,148.5,148.4,147.9,148.4,148.4,148.4,148.4,148.3,148.1,148.2
116,153.2,149.8,149.5,149.3,149.2,149,148.6,148.6,148.6,148.6,148.4,148,148.4,148.4,148.4,148.4,148.3,148.1,148.2
117,153.3,149.9,149.6,149.4,149.3,149.1,148.7,148.7,148.7,148.7,148.5,148,148.5,148.5,148.5,148.5,148.4,148.2,148.3
118,153.4,150,149.7,149.5,149.4,149.1,148.7,148.7,148.7,148.7,148.6,148.1,148.6,148.6,148.6,148.6,148.5,148.3,148.4
119,153.4,150.1,149.7,149.6,149.5,149.2,148.8,148.8,148.8,148.8,148.7,148.2,148.7,148.7,148.7,148.7,148.5,148.4,148.5
120,153.5,150.1,149.8,149.7,149.6,149.3,148.9,148.9,148.9,148.9,148.7,148.3,148.7,148.7,148.7,148.7,148.6,148.4,148.5
121,153.6,150.2,149.9,149.8,149.7,149.3,149,149,149,149,148.8,148.3,148.8,148.8,148.8,148.8,148.7,148.5,148.6
122,153.6,150.2,150.1,149.9,149.8,149.4,149,149,149,149,148.9,148.4,148.9,148.9,148.9,148.9,148.8,148.6,148.7
123,153.7,150.5,150.2,150.1,149.9,149.5,149.1,149.1,149.1,149.1,149,148.5,148.9,148.9,148.9,148.9,148.8,148.6,148.7
124,153.8,151,150.3,150.2,150,149.5,149.2,149.2,149.2,149.2,149,148.5,149,149,149,149,148.9,148.7,148.8
125,153.9,152,150.4,150.3,150.1,149.6,149.3,149.3,149.3,149.3,149.1,148.6,149.1,149.1,149.1,149.1,149,148.8,148.9
126,153.9,152.9,150.5,150.4,150.3,149.7,149.4,149.4,149.3,149.3,149.2,148.7,149.2,149.2,149.1,149.1,149,148.8,148.9
127,154,153.7,150.6,150.5,150.4,149.7,149.4,149.4,149.4,149.4,149.3,148.7,149.2,149.2,149.2,149.2,149.1,148.9,149
128,154.1,154.7,150.7,150.6,150.5,149.8,149.5,149.5,149.5,149.5,149.3,148.8,149.3,149.3,149.3,149.3,149.2,149,149
129,154.1,155.6,150.8,150.7,150.6,149.9,149.6,149.6,149.6,149.6,149.4,148.9,149.4,149.4,149.4,149.4,149.2,149,149.1
130,154.2,156.6,150.9,150.8,150.7,149.9,149.6,149.6,149.6,149.6,149.5,148.9,149.4,149.4,149.4,149.4,149.3,149.1,149.2
131,154.3,157.5,151,150.9,150.8,150,149.7,149.7,149.7,149.7,149.6,149,149.5,149.5,149.5,149.5,149.4,149.2,149.2
132,154.3,158.4,151.1,151,150.9,150,149.8,149.8,149.8,149.8,149.6,149.1,149.6,149.6,149.6,149.6,149.4,149.2,149.3
133,154.4,159.4,151.2,151.2,151,150.1,149.9,149.9,149.9,149.9,149.7,149.1,149.6,149.6,149.6,149.6,149.5,149.3,149.4
134,154.5,160.3,151.4,151.3,151.1,150.1,149.9,149.9,149.9,149.9,149.8,149.2,149.7,149.7,149.7,149.7,149.6,149.3,149.4
135,154.5,161.3,151.5,151.4,151.2,150.2,150,150,150,150,149.8,149.2,149.8,149.8,149.8,149.7,149.6,149.4,149.5
136,154.6,162.8,151.6,151.5,151.3,150.3,150.1,150.1,150.1,150.1,149.9,149.3,149.8,149.8,149.8,149.8,149.7,149.5,149.5
137,154.6,164.7,151.7,151.6,151.4,150.3,150.1,150.1,150.1,150.1,150,149.4,149.9,149.9,149.9,149.9,149.8,149.5,149.6
138,154.7,166.6,151.8,151.7,151.5,150.4,150.2,150.2,150.2,150.2,150,149.4,149.9,149.9,149.9,149.9,149.8,149.6,149.7
139,154.8,168.5,151.8,151.8,151.6,150.4,150.3,150.3,150.3,150.3,150.1,149.5,150,150,150,150,149.9,149.6,149.7
140,154.8,170.4,151.9,151.9,151.7,150.5,150.3,150.3,150.3,150.3,150.2,149.5,150.1,150.1,150.1,150.1,149.9,149.7,149.8
141,154.9,172.3,152,152,151.8,150.6,150.4,150.4,150.4,150.4,150.2,149.6,150.1,150.1,150.1,150.1,150,149.8,149.8
142,155,174.2,152.2,152.1,151.9,150.7,150.5,150.5,150.5,150.5,150.3,149.7,150.2,150.2,150.2,150.2,150.1,149.8,149.9
143,155,176.1,152.5,152.1,152,150.8,150.5,150.5,150.5,150.5,150.4,149.7,150.3,150.3,150.3,150.3,150.1,149.9,150
144,155.1,178,153.9,152.2,152.1,150.9,150.6,150.6,150.6,150.6,150.4,149.8,150.3,150.3,150.3,150.3,150.2,149.9,150
145,155.1,179.9,155.5,152.3,152.2,151,150.7,150.7,150.7,150.7,150.5,149.8,150.4,150.4,150.4,150.4,150.2,150,150.1
146,155.2,181.8,157,152.4,152.3,151.1,150.7,150.7,150.7,150.7,150.6,149.9,150.4,150.4,150.4,150.4,150.3,150.1,150.1
147,155.3,183.7,158.8,152.5,152.4,151.2,150.8,150.8,150.8,150.8,150.6,150,150.5,150.5,150.5,150.5,150.4,150.1,150.2
148,155.3,185.5,160.7,152.6,152.5,151.3,150.9,150.9,150.9,150.9,150.7,150,150.6,150.6,150.6,150.6,150.4,150.2,150.2
149,155.4,187.4,162.6,152.7,152.6,151.4,150.9,150.9,150.9,150.9,150.8,150.1,150.6,150.6,150.6,150.6,150.5,150.2,150.3
150,155.4,189.3,164.5,153,152.7,151.5,151,151,151,151,150.8,150.1,150.7,150.7,150.7,150.7,150.5,150.3,150.3
151,155.5,190.4,166.4,154.2,152.8,151.6,151.1,151.1,151.1,151.1,150.9,150.2,150.7,150.7,150.7,150.7,150.6,150.3,150.4
152,155.6,190.8,168.3,155.9,152.9,151.7,151.1,151.1,151.1,151.1,150.9,150.2,150.8,150.8,150.8,150.8,150.7,150.4,150.5
153,155.6,191.3,170.2,157.6,153,151.8,151.2,151.2,151.2,151.2,151,150.3,150.9,150.9,150.9,150.9,150.7,150.4,150.5
154,155.7,191.7,172.1,159.5,153,151.9,151.3,151.3,151.3,151.3,151.1,150.3,150.9,150.9,150.9,150.9,150.8,150.5,150.6
155,155.7,192.1,174,161.4,153.1,152,151.3,151.3,151.3,151.3,151.1,150.4,151,151,151,151,150.8,150.6,150.6
156,155.8,192.4,175.9,163.4,153.2,152.1,151.4,151.4,151.4,151.4,151.2,150.5,151,151,151,151,150.9,150.6,150.7
157,155.8,192.8,177.8,165.3,153.3,152.1,151.4,151.4,151.4,151.4,151.3,150.5,151.1,151.1,151.1,151.1,150.9,150.7,150.7
158,155.9,193.1,179.7,167.2,153.4,152.2,151.5,151.5,151.5,151.5,151.3,150.6,151.2,151.1,151.1,151.1,151,150.7,150.8
159,155.9,193.5,181.6,169.1,153.5,152.3,151.6,151.6,151.6,151.6,151.4,150.6,151.2,151.2,151.2,151.2,151.1,150.8,150.8
160,156,193.8,183.3,171,153.8,152.4,151.6,151.6,151.6,151.6,151.4,150.7,151.3,151.3,151.3,151.3,151.1,150.8,150.9
161,156,194.1,184.1,172.9,155.1,152.5,151.7,151.7,151.7,151.7,151.5,150.7,151.3,151.3,151.3,151.3,151.2,150.9,150.9
162,156.1,194.4,184.8,174.8,156.9,152.6,151.8,151.8,151.7,151.7,151.6,150.8,151.4,151.4,151.4,151.4,151.2,150.9,151
163,156.2,194.7,185.5,176.7,158.8,152.7,151.8,151.8,151.8,151.8,151.6,150.8,151.4,151.4,151.4,151.4,151.3,151,151
164,156.2,194.9,186.2,178.6,160.7,152.8,151.9,151.9,151.9,151.9,151.7,150.9,151.5,151.5,151.5,151.5,151.3,151,151.1
165,156.3,195.2,186.8,180.5,162.6,152.9,151.9,151.9,151.9,151.9,151.7,150.9,151.5,151.5,151.5,151.5,151.4,151.1,151.1
166,156.3,195.5,187.4,182.4,164.5,153,152,152,152,152,151.8,151,151.6,151.6,151.6,151.6,151.4,151.1,151.2
167,156.4,195.7,188,183.4,166.4,153.1,152,152,152,152,151.9,151,151.6,151.6,151.6,151.6,151.5,151.2,151.2
168,156.4,196,188.5,184.2,168.3,153.1,152.1,152.1,152.1,152.1,151.9,151.1,151.7,151.7,151.7,151.7,151.5,151.2,151.3
169,156.5,196.2,189,184.9,170.2,153.2,152.2,152.2,152.2,152.2,152,151.1,151.8,151.8,151.8,151.7,151.6,151.3,151.3
170,156.5,196.5,189.4,185.6,172.1,153.3,152.2,152.2,152.2,152.2,152,151.2,151.8,151.8,151.8,151.8,151.6,151.3,151.4
171,156.6,196.7,189.9,186.3,174,153.4,152.3,152.3,152.3,152.3,152.1,151.2,151.9,151.9,151.9,151.9,151.7,151.4,151.4
172,156.6,197,190.3,187,175.9,153.5,152.3,152.3,152.3,152.3,152.1,151.3,151.9,151.9,151.9,151.9,151.7,151.4,151.5
173,156.7,197.2,190.7,187.6,177.8,153.6,152.4,152.4,152.4,152.4,152.2,151.3,152,152,152,152,151.8,151.5,151.5
