5100MHz / Lb(0.50) dB
,h2(m),1000,1000,1000,1000,1000,10000,10000,10000,10000,10000,10000,20000,20000,20000,20000,20000,20000,20000
,h1(m),1.5,15,30,60,1000,1.5,15,30,60,1000,10000,1.5,15,30,60,1000,10000,20000
D (km),FSL
0,-106.588365,-106.599507,-106.481114,-106.347650,-106.074424,0.000000,-126.636590,-126.624698,-126.611466,-126.584943,-125.711167,0.000000,-132.657842,-132.651820,-132.645124,-132.631718,-132.201389,-126.600969,0.000000
1,-109.605463,-109.621413,-109.562718,-109.497376,-109.366818,-106.613573,-126.680064,-126.668289,-126.655187,-126.628927,-125.764695,-106.614504,-132.668766,-132.662759,-132.656079,-132.642706,-132.213478,-126.644381,-106.628162
2,-113.588746,-113.614228,-113.591085,-113.565083,-113.514373,-112.645946,-126.807973,-126.796528,-126.783797,-126.758301,-125.921483,-112.634971,-132.701383,-132.695420,-132.688789,-132.675508,-132.249543,-126.772082,-112.648463
3,-116.600634,-116.636856,-116.625161,-116.612339,-116.586975,-116.179425,-127.013178,-127.002241,-126.990101,-126.965751,-126.170873,-116.156817,-132.755206,-132.749318,-132.742765,-132.729646,-132.308998,-126.976924,-116.170506
4,-118.905717,-118.953078,-118.946145,-118.938662,-118.923833,-118.689736,-127.285204,-127.274914,-127.263505,-127.240617,-126.497700,-118.655605,-132.829473,-132.823673,-132.817233,-132.804324,-132.390906,-127.248345,-118.669306
5,-120.751130,-120.809802,-120.805407,-120.800474,-120.790882,-120.639501,-127.611813,-127.602246,-127.591645,-127.570374,-126.884904,-120.593901,-132.923143,-132.917467,-132.911156,-132.898511,-132.494004,-127.574135,-120.607426
6,-122.283690,-122.353763,-122.350556,-122.347072,-122.340277,-122.234660,-127.980478,-127.971687,-127.961910,-127.942367,-127.315750,-122.177519,-133.034972,-133.029437,-133.023270,-133.010949,-132.616795,-127.941775,-122.191082
7,-123.591448,-123.672971,-123.670627,-123.668096,-123.663098,-123.585114,-128.379576,-128.371539,-128.362594,-128.344733,-127.775594,-123.516439,-133.163561,-133.158179,-133.152192,-133.140202,-132.757599,-128.339531,-123.530098
8,-124.730935,-124.823940,-124.822124,-124.820246,-124.816331,-124.756549,-128.798987,-128.791665,-128.783527,-128.767269,-128.252225,-124.676301,-133.307375,-133.302161,-133.296364,-133.284752,-132.914626,-128.757372,-124.689961
9,-125.740011,-125.844515,-125.843126,-125.841551,-125.838459,-125.791066,-129.230344,-129.223663,-129.216285,-129.201488,-128.736184,-125.699366,-133.464867,-133.459824,-133.454217,-133.443015,-133.086009,-129.186867,-125.712940
10,-126.645146,-126.761162,-126.760025,-126.758721,-126.756269,-126.717691,-129.666966,-129.660918,-129.654230,-129.640771,-129.220395,-126.614478,-133.634420,-133.629564,-133.624162,-133.613371,-133.269921,-129.621458,-126.628167
11,-127.465554,-127.593086,-127.592101,-127.591089,-127.589019,-127.557033,-130.103821,-130.098299,-130.092210,-130.080040,-129.699750,-127.442365,-133.814503,-133.809836,-133.804639,-133.794252,-133.464574,-130.056067,-127.455970
12,-128.215618,-128.354668,-128.353882,-128.353000,-128.351299,-128.324264,-130.537104,-130.532094,-130.526524,-130.515454,-130.170737,-128.198124,-134.003579,-133.999102,-133.994122,-133.984145,-133.668269,-130.486932,-128.211776
13,-128.906491,-129.057058,-129.056361,-129.055629,-129.054165,-129.030926,-130.964057,-130.959522,-130.954469,-130.944394,-130.630988,-128.893323,-134.200249,-134.195961,-134.191195,-134.181635,-133.879402,-130.911313,-128.906974
14,-129.546636,-129.708714,-129.708194,-129.707527,-129.706278,-129.686028,-131.382877,-131.378744,-131.374124,-131.364869,-131.079136,-129.537030,-134.403201,-134.399086,-134.394517,-134.385366,-134.096520,-131.327395,-129.550705
15,-130.143081,-130.316663,-130.316192,-130.315631,-130.314579,-130.296648,-131.792363,-131.788503,-131.784247,-131.775724,-131.514294,-130.136275,-134.611181,-134.607249,-134.602872,-134.594134,-134.318315,-131.733947,-130.149934
16,-130.701348,-130.886422,-130.886003,-130.885555,-130.884559,-130.868597,-132.191448,-132.188042,-132.184019,-132.176246,-131.936143,-130.696815,-134.823118,-134.819352,-134.815176,-134.806812,-134.543566,-132.130129,-130.710499
17,-131.225977,-131.422525,-131.422206,-131.421794,-131.420948,-131.406546,-132.579932,-132.576740,-132.573186,-132.565864,-132.344678,-131.223387,-135.037988,-135.034402,-135.030408,-135.022427,-134.771250,-132.515622,-131.237101
18,-131.720840,-131.928842,-131.928563,-131.928209,-131.927485,-131.914320,-132.957698,-132.954720,-132.951389,-132.944782,-132.739986,-131.719866,-135.254938,-135.251516,-135.247701,-135.240081,-135.000435,-132.890214,-131.733530
19,-132.189132,-132.408560,-132.408291,-132.408001,-132.407362,-132.395256,-133.324665,-133.321876,-133.318779,-133.312570,-133.122557,-132.189443,-135.473182,-135.469913,-135.466266,-135.458998,-135.230349,-133.253952,-132.203129
20,-132.633466,-132.864280,-132.864186,-132.863825,-132.863266,-132.852073,-133.681050,-133.678345,-133.675724,-133.669739,-133.492564,-132.634948,-135.692045,-135.688918,-135.685439,-135.678482,-135.460260,-133.606981,-132.648665
21,-133.056235,-133.298386,-133.298284,-133.298077,-133.297546,-133.287123,-134.026708,-134.024430,-134.021755,-134.016359,-133.850669,-133.058723,-135.910951,-135.907950,-135.904622,-135.897969,-135.689596,-133.949584,-133.072460
22,-133.459449,-133.712869,-133.712812,-133.712624,-133.712165,-133.702402,-134.362684,-134.360399,-134.357852,-134.352815,-134.197319,-133.462768,-136.129354,-136.126484,-136.123314,-136.116953,-135.917869,-134.282018,-133.476477
23,-133.844834,-134.109430,-134.109393,-134.109210,-134.108781,-134.099719,-134.688725,-134.686589,-134.684214,-134.679431,-134.532980,-133.848840,-136.346847,-136.344118,-136.341066,-136.334990,-136.144666,-134.604636,-133.862569
24,-134.213786,-134.489423,-134.489520,-134.489356,-134.488930,-134.480587,-135.005353,-135.003342,-135.001088,-134.996608,-134.858279,-134.218496,-136.563056,-136.560432,-136.557532,-136.551713,-136.369623,-134.917809,-134.232255
25,-134.567778,-134.854269,-134.854407,-134.854289,-134.853833,-134.846326,-135.312974,-135.311063,-135.308932,-135.304681,-135.173545,-134.573010,-136.777713,-136.775180,-136.772395,-136.766831,-136.592471,-135.221941,-134.586795
26,-134.907920,-135.204980,-135.205212,-135.205078,-135.204533,-135.198149,-135.611929,-135.610122,-135.608090,-135.604048,-135.479269,-134.913622,-136.990468,-136.988043,-136.985387,-136.980028,-136.812932,-135.517370,-134.927445
27,-135.235284,-135.542487,-135.542795,-135.542661,-135.541933,-135.537053,-135.902590,-135.900858,-135.898913,-135.895072,-135.776051,-135.241403,-137.201182,-137.198883,-137.196318,-137.191198,-137.030875,-135.804446,-135.255234
28,-135.550749,-135.867457,-135.867901,-135.867715,-135.866853,-135.864027,-136.185290,-136.183642,-136.181789,-136.178140,-136.064289,-135.557269,-137.409683,-137.407443,-137.405017,-137.400059,-137.246158,-136.083599,-135.571098
29,-135.855175,-136.180515,-136.181198,-136.181032,-136.180206,-136.179908,-136.460406,-136.458817,-136.457067,-136.453562,-136.344328,-135.862000,-137.615811,-137.613682,-137.611205,-137.606542,-137.458579,-136.355107,-135.875897
30,-136.149286,-136.482322,-136.483437,-136.483506,-136.483161,-136.485380,-136.728272,-136.726750,-136.725062,-136.721671,-136.616641,-136.156436,-137.819442,-137.817389,-137.815162,-137.810530,-137.668146,-136.619323,-136.170343
31,-136.433797,-136.773932,-136.775783,-136.776276,-136.776586,-136.781216,-136.989227,-136.987746,-136.986097,-136.982852,-136.881549,-136.441121,-138.020589,-138.018603,-138.016365,-138.011840,-137.874776,-136.876610,-136.455125
32,-136.709288,-137.056469,-137.059172,-137.060172,-137.061191,-137.067972,-137.243489,-137.242058,-137.240472,-137.237360,-137.139406,-136.716958,-138.218959,-138.217036,-138.214912,-138.210684,-138.078508,-137.127226,-136.730851
33,-136.976327,-137.330799,-137.334325,-137.335824,-137.337451,-137.346197,-137.491403,-137.490050,-137.488520,-137.485507,-137.390588,-136.984289,-138.414720,-138.412925,-138.410842,-138.406732,-138.279090,-137.371465,-136.998122
34,-137.235385,-137.597406,-137.601714,-137.603639,-137.605814,-137.616424,-137.733300,-137.731959,-137.730496,-137.727547,-137.635342,-137.243347,-138.607833,-138.606020,-138.604044,-138.600189,-138.476695,-137.609651,-137.257396
35,-137.486953,-137.856702,-137.861734,-137.864047,-137.866689,-137.879103,-137.969338,-137.968056,-137.966652,-137.963785,-137.874045,-137.495245,-138.798199,-138.796548,-138.794602,-138.790811,-138.671379,-137.841979,-137.509141
36,-137.731445,-138.109014,-138.114712,-138.117394,-138.120481,-138.134657,-138.199842,-138.198591,-138.197198,-138.194433,-138.106895,-137.739760,-138.985875,-138.984233,-138.982430,-138.978693,-138.862980,-138.068794,-137.753816
37,-137.969254,-138.354670,-138.361041,-138.364064,-138.367567,-138.383484,-138.425017,-138.423804,-138.422431,-138.419750,-138.334188,-137.977766,-139.170856,-139.169299,-139.167398,-139.163785,-139.051835,-138.290198,-137.991761
38,-138.200728,-138.593972,-138.600965,-138.604334,-138.608233,-138.625930,-138.645099,-138.643915,-138.642612,-138.639953,-138.556156,-138.209192,-139.353180,-139.351624,-139.349821,-139.346330,-139.237540,-138.506523,-138.223376
39,-138.426177,-138.827197,-138.834852,-138.838551,-138.842863,-138.862337,-138.860298,-138.859107,-138.857823,-138.855246,-138.773061,-138.434798,-139.532759,-139.531243,-139.529540,-139.526145,-139.420434,-138.717943,-138.448955
40,-138.645955,-139.054679,-139.062959,-139.066985,-139.071712,-139.093024,-139.070776,-139.069631,-139.068374,-139.065835,-138.985089,-138.654661,-139.709754,-139.708276,-139.706608,-139.703328,-139.600455,-138.924647,-138.668843
41,-138.860313,-139.276650,-139.285586,-139.289977,-139.295061,-139.318190,-139.276778,-139.275643,-139.274402,-139.271941,-139.192454,-138.869079,-139.884108,-139.882667,-139.881122,-139.877889,-139.777651,-139.126843,-138.883278
42,-139.069505,-139.493351,-139.502943,-139.507653,-139.513208,-139.538176,-139.478424,-139.477330,-139.476114,-139.473660,-139.395317,-139.078472,-140.055950,-140.054545,-140.052965,-140.049867,-139.952148,-139.324742,-139.092557
43,-139.273769,-139.705011,-139.715293,-139.720345,-139.726301,-139.753217,-139.675926,-139.674860,-139.673630,-139.671272,-139.593907,-139.282614,-140.225239,-140.223870,-140.222369,-140.219360,-140.123967,-139.518429,-139.296920
44,-139.473346,-139.911863,-139.922852,-139.928253,-139.934679,-139.963540,-139.869451,-139.868397,-139.867210,-139.864847,-139.788386,-139.482234,-140.392032,-140.390722,-140.389217,-140.386237,-140.293111,-139.708353,-139.496568
45,-139.668444,-140.114110,-140.125816,-140.131584,-140.138410,-140.169325,-140.059133,-140.058098,-140.056915,-140.054638,-139.978911,-139.677295,-140.556412,-140.555064,-140.553651,-140.550772,-140.459700,-139.894018,-139.691770
46,-139.859258,-140.311941,-140.324393,-140.330518,-140.337800,-140.370789,-140.245118,-140.244086,-140.242965,-140.240616,-140.165624,-139.868169,-140.718369,-140.717094,-140.715675,-140.712835,-140.623685,-140.076051,-139.882596
47,-140.046017,-140.505583,-140.518745,-140.525249,-140.532999,-140.568111,-140.427536,-140.426514,-140.425376,-140.423085,-140.348694,-140.054882,-140.877990,-140.876738,-140.875312,-140.872563,-140.785234,-140.254702,-140.069356
48,-140.228760,-140.695063,-140.709041,-140.715952,-140.724169,-140.761472,-140.606537,-140.605520,-140.604398,-140.602130,-140.528244,-140.237706,-141.035310,-141.034067,-141.032700,-141.029977,-140.944343,-140.429868,-140.252182
49,-140.407773,-140.880672,-140.895464,-140.902777,-140.911488,-140.951023,-140.782221,-140.781215,-140.780078,-140.777863,-140.704378,-140.416682,-141.190344,-141.189138,-141.187803,-141.185120,-141.101071,-140.601805,-140.431283
50,-140.583187,-141.062535,-141.078149,-141.085870,-141.095077,-141.136943,-140.954714,-140.953714,-140.952609,-140.950369,-140.877274,-140.592079,-141.343180,-141.341999,-141.340684,-141.338055,-141.255473,-140.770314,-140.606668
51,-140.755124,-141.240770,-141.257236,-141.265394,-141.275142,-141.319323,-141.124141,-141.123153,-141.122033,-141.119823,-141.047009,-140.763976,-141.493850,-141.492691,-141.491397,-141.488822,-141.407621,-140.935846,-140.778639
52,-140.923737,-141.415530,-141.432876,-141.441445,-141.451688,-141.498348,-141.290580,-141.289596,-141.288497,-141.286290,-141.213733,-140.932558,-141.642397,-141.641256,-141.639981,-141.637458,-141.557550,-141.098395,-140.947282
53,-141.089117,-141.586900,-141.605138,-141.614232,-141.624978,-141.674160,-141.454157,-141.453170,-141.452084,-141.449881,-141.377472,-141.097909,-141.788863,-141.787748,-141.786500,-141.784002,-141.705308,-141.258148,-141.112673
54,-141.251417,-141.755034,-141.774188,-141.783693,-141.795022,-141.846757,-141.614952,-141.613983,-141.612883,-141.610700,-141.538403,-141.260161,-141.933309,-141.932207,-141.930987,-141.928516,-141.850949,-141.415298,-141.274976
55,-141.410765,-141.920057,-141.940162,-141.950121,-141.962045,-142.016381,-141.773065,-141.772095,-141.771011,-141.768831,-141.696600,-141.419441,-142.075767,-142.074686,-142.073473,-142.071046,-141.994534,-141.569211,-141.434613
56,-141.567176,-142.081976,-142.103083,-142.113554,-142.126047,-142.183110,-141.928596,-141.927631,-141.926538,-141.924359,-141.852154,-141.575844,-142.216297,-142.215224,-142.214026,-142.211637,-142.136093,-141.720820,-141.590725
57,-141.720930,-142.241083,-142.263106,-142.274090,-142.287200,-142.347011,-142.081594,-142.080639,-142.079560,-142.077380,-142.005143,-141.729474,-142.354913,-142.353855,-142.352681,-142.350318,-142.275683,-141.869864,-141.744484
58,-141.871895,-142.397227,-142.420364,-142.431829,-142.445563,-142.508210,-142.232169,-142.231215,-142.230133,-142.227956,-142.155658,-141.880423,-142.491683,-142.490625,-142.489470,-142.487142,-142.413360,-142.016479,-141.895377
59,-142.020331,-142.550677,-142.574854,-142.586865,-142.601172,-142.666792,-142.380401,-142.379438,-142.378375,-142.376182,-142.303775,-142.028795,-142.626626,-142.625594,-142.624450,-142.622145,-142.549143,-142.160811,-142.043871
60,-142.166287,-142.701478,-142.726790,-142.739305,-142.754246,-142.822845,-142.526331,-142.525364,-142.524286,-142.522130,-142.449582,-142.174666,-142.759803,-142.758783,-142.757642,-142.755370,-142.683101,-142.302799,-142.189940
61,-142.309818,-142.849684,-142.876047,-142.889146,-142.904884,-142.976474,-142.670048,-142.669090,-142.668011,-142.665838,-142.593119,-142.318125,-142.891237,-142.890228,-142.889110,-142.886857,-142.815263,-142.442543,-142.333553
62,-142.451008,-142.995373,-143.022863,-143.036553,-143.052910,-143.127668,-142.811615,-142.810656,-142.809582,-142.807411,-142.734500,-142.459234,-143.020992,-143.019997,-143.018876,-143.016636,-142.945703,-142.580173,-142.474583
63,-142.589946,-143.138637,-143.167312,-143.181559,-143.198582,-143.276596,-142.951111,-142.950146,-142.949074,-142.946892,-142.873739,-142.598100,-143.149075,-143.148077,-143.147026,-143.144766,-143.074384,-142.715677,-142.613413
64,-142.726703,-143.279544,-143.309402,-143.324263,-143.342029,-143.423300,-143.088570,-143.087613,-143.086531,-143.084367,-143.010937,-142.734759,-143.275534,-143.274552,-143.273484,-143.271268,-143.201420,-142.849169,-142.750150
65,-142.861349,-143.418164,-143.449226,-143.464734,-143.483242,-143.567834,-143.224069,-143.223109,-143.222022,-143.219842,-143.146143,-142.869301,-143.400417,-143.399444,-143.398377,-143.396173,-143.326816,-142.980683,-142.884811
66,-142.993931,-143.554538,-143.586848,-143.602946,-143.622203,-143.710275,-143.357663,-143.356694,-143.355608,-143.353422,-143.279412,-143.001784,-143.523745,-143.522782,-143.521736,-143.519536,-143.450634,-143.110286,-143.017310
67,-143.124500,-143.688717,-143.722388,-143.739057,-143.759084,-143.850682,-143.489404,-143.488435,-143.487345,-143.485142,-143.410793,-143.132262,-143.645563,-143.644620,-143.643522,-143.641386,-143.572874,-143.238004,-143.147998
68,-143.253149,-143.820796,-143.855728,-143.873135,-143.893909,-143.989127,-143.619332,-143.618362,-143.617271,-143.615068,-143.540358,-143.260813,-143.765885,-143.764925,-143.763870,-143.761736,-143.693613,-143.363954,-143.276549
69,-143.379925,-143.950818,-143.987077,-144.005165,-144.026747,-144.125641,-143.747505,-143.746530,-143.745442,-143.743229,-143.668134,-143.387461,-143.884780,-143.883786,-143.882757,-143.880646,-143.812861,-143.488112,-143.403216
70,-143.504879,-144.078834,-144.116434,-144.135195,-144.157620,-144.260285,-143.873978,-143.873002,-143.871904,-143.869690,-143.794192,-143.512296,-144.002228,-144.001278,-144.000228,-143.998113,-143.930634,-143.610558,-143.528112
71,-143.628051,-144.204880,-144.243906,-144.263378,-144.286637,-144.393115,-143.998794,-143.997803,-143.996699,-143.994475,-143.918574,-143.635360,-144.118310,-144.117366,-144.116335,-144.114200,-144.046992,-143.731346,-143.651353
72,-143.749516,-144.329033,-144.369526,-144.389636,-144.413716,-144.524214,-144.121975,-144.121001,-144.119886,-144.117651,-144.041307,-143.756722,-144.233004,-144.232068,-144.231028,-144.228935,-144.161962,-143.850504,-143.772703
73,-143.869297,-144.451313,-144.493177,-144.514093,-144.539079,-144.653542,-144.243594,-144.242612,-144.241501,-144.239254,-144.162465,-143.876361,-144.346395,-144.345447,-144.344410,-144.342331,-144.275575,-143.968078,-143.892375
74,-143.987455,-144.571780,-144.615155,-144.636801,-144.662693,-144.781212,-144.363673,-144.362687,-144.361573,-144.359313,-144.282063,-143.994383,-144.458461,-144.457534,-144.456500,-144.454418,-144.387849,-144.084116,-144.010489
75,-144.104027,-144.690470,-144.735353,-144.757734,-144.784526,-144.907258,-144.482258,-144.481273,-144.480150,-144.477886,-144.400146,-144.110817,-144.569266,-144.568319,-144.567342,-144.565239,-144.498824,-144.198653,-144.127270
76,-144.219050,-144.807418,-144.853842,-144.876991,-144.904719,-145.031770,-144.599397,-144.598405,-144.597271,-144.594990,-144.516761,-144.225704,-144.678827,-144.677936,-144.676870,-144.674811,-144.608546,-144.311712,-144.242008
77,-144.332604,-144.922707,-144.970676,-144.994597,-145.023289,-145.154615,-144.715102,-144.714106,-144.712977,-144.710686,-144.631936,-144.339012,-144.787188,-144.786246,-144.785209,-144.783154,-144.716985,-144.423347,-144.355501
78,-144.444626,-145.036265,-145.085866,-145.110608,-145.140303,-145.276046,-144.829430,-144.828425,-144.827283,-144.824990,-144.745721,-144.450978,-144.894297,-144.893381,-144.892386,-144.890295,-144.824234,-144.533597,-144.467468
79,-144.555263,-145.148244,-145.199445,-145.225024,-145.255660,-145.396016,-144.942405,-144.941394,-144.940244,-144.937935,-144.858132,-144.561489,-145.000259,-144.999350,-144.998343,-144.996273,-144.930249,-144.642483,-144.578048
80,-144.664499,-145.310996,-145.311504,-145.337897,-145.369517,-145.514502,-145.054055,-145.053041,-145.051886,-145.049569,-144.969219,-144.670564,-145.105087,-145.104173,-145.103150,-145.101104,-145.035154,-144.750037,-144.687222
81,-144.772380,-145.501563,-145.422082,-145.449280,-145.481908,-145.631594,-145.164409,-145.163396,-145.162240,-145.159901,-145.078994,-144.778319,-145.208793,-145.207877,-145.206873,-145.204808,-145.138867,-144.856301,-144.795025
82,-144.878946,-145.691558,-145.531090,-145.559199,-145.592849,-145.747332,-145.273526,-145.272506,-145.271342,-145.268987,-145.187515,-144.884687,-145.311374,-145.310456,-145.309432,-145.307403,-145.241479,-144.961304,-144.901561
83,-144.984208,-145.880974,-145.638615,-145.667611,-145.702363,-145.861720,-145.381398,-145.380375,-145.379206,-145.376843,-145.294792,-144.989840,-145.412872,-145.411977,-145.410957,-145.408931,-145.342976,-145.065059,-145.006716
84,-145.088229,-146.069865,-145.744791,-145.774671,-145.810456,-145.974817,-145.488080,-145.487055,-145.485874,-145.483499,-145.400866,-145.093630,-145.513369,-145.512427,-145.511414,-145.509305,-145.443389,-145.167614,-145.110667
