5100MHz / Lb(0.05) dB
,h2(m),1000,1000,1000,1000,1000,10000,10000,10000,10000,10000,10000,20000,20000,20000,20000,20000,20000,20000
,h1(m),1.5,15,30,60,1000,1.5,15,30,60,1000,10000,1.5,15,30,60,1000,10000,20000
D (km),FSL
0,106.588365,102.444086,102.325693,102.192229,101.919004,-0.000000,122.481170,122.469278,122.456045,122.429522,121.555747,-0.000000,128.502421,128.496399,128.489704,128.476297,128.045968,122.445549,-0.000000
1,109.605463,105.076492,105.058737,105.038739,104.998345,104.222608,122.518684,122.513912,122.508591,122.497892,122.118234,106.205444,128.512038,128.509551,128.506783,128.501233,128.317289,124.867840,106.341379
2,113.588746,108.715107,108.712324,108.708916,108.703131,108.991544,122.626780,122.622209,122.617113,122.606883,122.246098,112.031300,128.539557,128.537104,128.534374,128.528896,128.347487,124.976107,112.238792
3,116.600634,111.576086,111.575160,111.574277,111.572725,111.895832,122.800513,122.796231,122.791479,122.781908,122.448953,115.281136,128.584932,128.582533,128.579857,128.574490,128.396755,125.144450,115.669343
4,118.905717,113.802660,113.803066,113.803723,113.805140,114.074125,123.031607,123.027680,123.023336,123.014578,122.712627,117.531843,128.647526,128.645181,128.642579,128.637347,128.464316,125.366607,118.062781
5,120.751130,115.602860,115.603909,115.605022,115.607497,115.824833,123.310411,123.306869,123.302954,123.295058,123.025844,119.224029,128.726488,128.724220,128.721696,128.716626,128.549158,125.632677,119.851533
6,122.283690,117.108165,117.109240,117.110510,117.113208,117.292164,123.627339,123.624110,123.620510,123.613354,123.376612,120.572863,128.820822,128.818638,128.816196,128.811321,128.650108,125.932587,121.311512
7,123.591448,118.399349,118.400509,118.401868,118.404641,118.561836,123.973203,123.970355,123.967175,123.960833,123.753921,121.694336,128.929421,128.927324,128.924987,128.920297,128.765875,126.256955,122.530991
8,124.730935,119.529095,119.530234,119.531633,119.534272,119.673995,124.339177,124.336677,124.333894,124.328338,124.148412,122.639289,129.051078,129.049074,129.046844,129.042366,128.895093,126.597799,123.559142
9,125.740011,120.533050,120.534208,120.535461,120.538020,120.663351,124.718208,124.715998,124.713581,124.708704,124.552639,123.469268,129.184585,129.182672,129.180543,129.176291,129.036348,126.939404,124.455047
10,126.645146,121.436372,121.437430,121.438608,121.441115,121.554511,125.104501,125.102588,125.100491,125.096217,124.960823,124.193928,129.328677,129.326864,129.324842,129.320808,129.188265,127.281695,125.248378
11,127.465554,122.257325,122.258759,122.260395,122.263503,122.365317,125.493555,125.491863,125.490022,125.486345,125.368597,124.853045,129.482171,129.480442,129.478525,129.474695,129.349497,127.624679,125.959153
12,128.215618,123.009734,123.011251,123.012880,123.016061,123.109117,125.881845,125.880379,125.878744,125.875535,125.773860,125.444806,129.644276,129.642610,129.640752,129.637022,129.518761,127.965515,126.593119
13,128.906491,123.704339,123.705873,123.707561,123.710776,123.796213,126.266706,126.265452,126.264044,126.261259,126.173139,125.986522,129.813459,129.811887,129.810139,129.806616,129.694838,128.302137,127.176790
14,129.546636,124.349306,124.350977,124.352679,124.355978,124.434738,126.646298,126.645209,126.643978,126.641483,126.564918,126.491713,129.988667,129.987175,129.985519,129.982194,129.876612,128.625971,127.709869
15,130.143081,124.951444,124.953155,124.954941,124.958366,125.031139,127.019312,127.018289,127.017181,127.014947,126.948085,126.964373,130.168876,130.167473,130.165905,130.162782,130.063072,128.939426,128.196640
16,130.701348,125.516107,125.517885,125.519788,125.523249,125.590756,127.384539,127.383770,127.382683,127.380769,127.322025,127.399370,130.353207,130.351877,130.350406,130.347452,130.253252,129.246139,128.652760
17,131.225977,126.047704,126.049617,126.051586,126.055218,126.117909,127.741591,127.740871,127.740056,127.738200,127.686415,127.811364,130.540802,130.539559,130.538168,130.535393,130.446336,129.545863,129.082016
18,131.720840,126.550006,126.552016,126.554089,126.557904,126.616151,128.090195,128.089521,128.088751,128.087271,128.041030,128.202968,130.730935,130.729765,130.728455,130.725841,130.642010,129.838418,129.477187
19,132.189132,127.026122,127.028216,127.030421,127.034414,127.088606,128.430064,128.429437,128.428742,128.427335,128.386063,128.576305,130.922925,130.921822,130.920583,130.918127,130.839279,130.123808,129.847593
20,132.633466,127.478592,127.480950,127.483168,127.487366,127.551483,128.761257,128.760585,128.760214,128.758746,128.721390,128.933262,131.116176,131.115132,131.113968,131.111638,131.037407,130.397657,130.199934
21,133.056235,127.909745,127.912202,127.914673,127.919053,127.981054,129.085902,129.085320,129.084525,129.082891,129.047413,129.272727,131.310172,131.309174,131.308071,131.305866,131.235893,130.661940,130.535996
22,133.459449,128.321531,128.324154,128.326759,128.331390,128.391558,129.402517,129.401830,129.401060,129.399570,129.364339,129.597463,131.504409,131.503465,131.502432,131.500346,131.434295,130.919782,130.857281
23,133.844834,128.715610,128.718391,128.721130,128.725994,128.784715,129.710486,129.709861,129.709163,129.707737,129.672412,129.910093,131.698505,131.697625,131.696629,131.694663,131.632230,131.171384,131.157586
24,134.213786,129.093299,129.096368,129.099268,129.104360,129.161963,130.010218,130.009640,130.008976,130.007673,129.972061,130.211603,131.892098,131.891253,131.890328,131.888460,131.829349,131.416961,131.443347
25,134.567778,129.455975,129.459259,129.462359,129.467658,129.524560,130.302027,130.301473,130.300850,130.299613,130.263441,130.502771,132.084923,132.084101,132.083216,132.081457,132.025383,131.656752,131.718389
26,134.907920,129.804597,129.808167,129.811415,129.816865,129.873665,130.586153,130.585636,130.585037,130.583860,130.548082,130.784395,132.276627,132.275844,132.275020,132.273320,132.220042,131.890945,131.983629
27,135.235284,130.140003,130.143867,130.147282,130.152766,130.210231,130.862889,130.862385,130.861805,130.860691,130.826417,131.057143,132.467060,132.466344,132.465540,132.463940,132.413181,132.119736,132.239807
28,135.550749,130.462696,130.466950,130.470476,130.476011,130.535208,131.132496,131.132017,131.131466,131.130416,131.097385,131.321591,132.656032,132.655319,132.654590,132.653018,132.604631,132.342936,132.487598
29,135.855175,130.773018,130.777842,130.781566,130.787386,130.849399,131.395279,131.394808,131.394299,131.393277,131.361234,131.578200,132.843366,132.842707,132.841859,132.840465,132.794165,132.558904,132.727617
30,136.149286,131.071271,131.077056,131.081316,131.088121,131.153460,131.651514,131.651061,131.650560,131.649542,131.618340,131.827529,133.028919,133.028279,133.027624,133.026140,132.981759,132.770214,132.955420
31,136.433797,131.358371,131.365772,131.370984,131.379250,131.448138,131.901484,131.901027,131.900515,131.899543,131.868945,132.070529,133.212664,133.212046,133.211327,133.209834,133.167297,132.977078,133.175546
32,136.709288,131.635707,131.645182,131.651618,131.661575,131.733967,132.145357,132.144908,132.144412,132.143479,132.113330,132.307209,133.394305,133.393701,133.393037,133.391743,133.350781,133.179627,133.389595
33,136.976327,131.904500,131.916217,131.923962,131.935582,132.011476,132.383435,132.383023,132.382540,132.381619,132.351801,132.537679,133.573969,133.573454,133.572783,133.571499,133.531934,133.378025,133.597977
34,137.235385,132.165404,132.179414,132.188439,132.201697,132.281180,132.616004,132.615569,132.615112,132.614173,132.584548,132.762011,133.751610,133.751018,133.750408,133.749287,133.710878,133.572464,133.800993
35,137.486953,132.418841,132.435153,132.445448,132.460298,132.543513,132.843188,132.842777,132.842341,132.841408,132.811890,132.981124,133.927077,133.926612,133.925989,133.924838,133.887655,133.763036,133.998956
36,137.731445,132.665094,132.683718,132.695298,132.711759,132.798883,133.065277,133.064865,133.064404,133.063503,133.033981,133.194674,134.100420,134.099927,134.099401,134.098216,134.062053,133.949961,134.192174
37,137.969254,132.904435,132.925457,132.938336,132.956433,133.047676,133.282444,133.282041,133.281565,133.280682,133.251068,133.403370,134.271603,134.271157,134.270490,134.269350,134.234377,134.133253,134.380866
38,138.200728,133.137057,133.160526,133.174758,133.194529,133.290175,133.494899,133.494495,133.494060,133.493135,133.463345,133.607046,134.440643,134.440164,134.439559,134.438459,134.404207,134.313136,134.565299
39,138.426177,133.362574,133.388637,133.404257,133.425783,133.526054,133.702825,133.702388,133.701942,133.701041,133.671037,133.806332,134.607821,134.607229,134.606552,134.605333,134.571832,134.489697,134.745662
40,138.645955,133.579629,133.608352,133.625404,133.648734,133.753808,133.906359,133.905944,133.905498,133.904579,133.874296,134.001208,134.773897,134.773315,134.772642,134.771350,134.737178,134.663036,134.921402
41,138.860313,133.791097,133.822648,133.841241,133.866401,133.976558,134.105728,134.105299,134.104842,134.103950,134.073306,134.191886,134.937725,134.937152,134.936574,134.935270,134.900248,134.833281,135.092109
42,139.069505,133.995162,134.029669,134.049815,134.076981,134.192427,134.301030,134.300620,134.300163,134.299229,134.268200,134.378682,135.099421,135.098859,135.098214,135.096989,135.061151,135.000562,135.259406
43,139.273769,134.193642,134.231292,134.253087,134.282275,134.403381,134.492457,134.492055,134.491561,134.490677,134.459182,134.561333,135.258923,135.258372,135.257779,135.256587,135.219883,135.165258,135.423441
44,139.473346,134.386267,134.427231,134.450759,134.482122,134.609159,134.680163,134.679753,134.679281,134.678346,134.646389,134.740458,135.416270,135.415756,135.415133,135.413918,135.376419,135.327468,135.584333
45,139.668444,134.573542,134.617906,134.643265,134.676830,134.810205,134.864265,134.863855,134.863365,134.862475,134.829957,134.915967,135.571534,135.570957,135.570403,135.569240,135.531649,135.486575,135.742266
46,139.859258,134.756674,134.803292,134.830557,134.866470,135.006478,135.044894,135.044469,135.044022,135.043022,135.010011,135.088175,135.724686,135.724161,135.723577,135.722404,135.685258,135.643095,135.897248
47,140.046017,134.935088,134.984747,135.013459,135.051841,135.198882,135.222168,135.221736,135.221253,135.220273,135.186697,135.257050,135.875800,135.875278,135.874663,135.873536,135.836800,135.797224,136.049504
48,140.228760,135.108061,135.161756,135.191153,135.232099,135.386526,135.396224,135.395780,135.395296,135.394303,135.360126,135.422809,136.024898,136.024367,136.023788,136.022644,135.986249,135.948821,136.199105
49,140.407773,135.276539,135.334467,135.365610,135.408349,135.570546,135.567150,135.566703,135.566186,135.565213,135.530384,135.585454,136.171982,136.171468,136.170902,136.169756,136.133651,136.098085,136.346190
50,140.583187,135.440769,135.503149,135.536534,135.580916,135.751380,135.735064,135.734607,135.734107,135.733076,135.697635,135.745203,136.317128,136.316620,136.316054,136.314923,136.279047,136.244791,136.490729
51,140.755124,135.600192,135.667258,135.703013,135.749094,135.928144,135.900078,135.899620,135.899090,135.898059,135.861943,135.902101,136.460354,136.459852,136.459288,136.458172,136.422492,136.389327,136.632949
52,140.923737,135.754906,135.826900,135.865100,135.912990,136.100981,136.062264,136.061797,136.061273,136.060215,136.023446,136.056289,136.601696,136.601195,136.600632,136.599531,136.564007,136.531651,136.772888
53,141.089117,135.905416,135.982574,136.023440,136.074363,136.270675,136.221737,136.221256,136.220731,136.219649,136.182159,136.207822,136.741182,136.740692,136.740138,136.739028,136.703627,136.671907,136.910584
54,141.251417,136.052560,136.135153,136.178702,136.232883,136.438333,136.378572,136.378096,136.377544,136.376455,136.338247,136.356797,136.878866,136.878374,136.877831,136.876713,136.841395,136.810246,137.046142
55,141.410765,136.195441,136.283739,136.330128,136.387708,136.602693,136.532860,136.532372,136.531822,136.530711,136.491776,136.503311,137.014768,137.014283,137.013731,137.012626,136.977359,136.946057,137.179905
56,141.567176,136.334036,136.428328,136.477728,136.538815,136.763821,136.684694,136.684199,136.683629,136.682495,136.642826,136.648141,137.148942,137.148450,137.147898,137.146800,137.111537,137.080174,137.311094
57,141.720930,136.468595,136.569042,136.621575,136.686349,136.921767,136.834116,136.833622,136.833054,136.831896,136.791467,136.791292,137.281391,137.280901,137.280358,137.279256,137.243976,137.212330,137.440713
58,141.871895,136.598943,136.705986,136.761742,136.830347,137.076643,136.981233,136.980729,136.980147,136.978970,136.937783,136.932148,137.412177,137.411674,137.411135,137.410040,137.374723,137.342627,137.568275
59,142.020331,136.725313,136.839130,136.898296,136.970822,137.228517,137.126115,137.125593,137.125020,137.123805,137.081842,137.070790,137.541310,137.540821,137.540279,137.539179,137.503787,137.471194,137.694476
60,142.166287,136.849001,136.969978,137.032667,137.109355,137.379445,137.268803,137.268267,137.267669,137.266470,137.223724,137.207275,137.668845,137.668355,137.667804,137.666710,137.631226,137.597941,137.819030
61,142.309818,136.969139,137.097469,137.163898,137.245067,137.528176,137.409376,137.408841,137.408232,137.406996,137.363465,137.341676,137.794796,137.794307,137.793765,137.792665,137.757064,137.722940,137.941817
62,142.451008,137.085512,137.221538,137.291848,137.377479,137.674271,137.547896,137.547351,137.546737,137.545486,137.501171,137.474039,137.919223,137.918737,137.918180,137.917069,137.881363,137.846302,138.062698
63,142.589946,137.198184,137.342234,137.416531,137.506825,137.817888,137.684436,137.683877,137.683256,137.681975,137.636849,137.604453,138.042126,138.041626,138.041127,138.039972,138.004082,137.967996,138.181992
64,142.726703,137.307200,137.459545,137.538022,137.633212,137.959061,137.819025,137.818467,137.817827,137.816546,137.770598,137.732942,138.163547,138.163053,138.162526,138.161392,138.125326,138.088112,138.299792
65,142.861349,137.412607,137.573543,137.656372,137.756618,138.097842,137.951739,137.951169,137.950517,137.949203,137.902459,137.859581,138.283529,138.283033,138.282496,138.281352,138.245093,138.206668,138.416085
66,142.993931,137.514426,137.684272,137.771538,137.877007,138.234296,138.082627,138.082041,138.081381,138.080046,138.032485,137.984416,138.402086,138.401590,138.401064,138.399904,138.363439,138.323711,138.530770
67,143.124500,137.612687,137.791828,137.883656,137.994529,138.368479,138.211738,138.211145,138.210473,138.209106,138.160717,138.107490,138.519258,138.518774,138.518186,138.517069,138.480357,138.439250,138.644165
68,143.253149,137.707467,137.896083,137.992775,138.109195,138.500454,138.339109,138.338509,138.337828,138.336445,138.287225,138.228867,138.635057,138.634546,138.633992,138.632857,138.595918,138.553388,138.755939
69,143.379925,137.798791,137.997221,138.098867,138.221054,138.630246,138.464795,138.464184,138.463499,138.462091,138.412033,138.348564,138.749546,138.748992,138.748454,138.747323,138.710127,138.666085,138.866316
70,143.504879,137.886875,138.095416,138.202155,138.330315,138.758202,138.588848,138.588230,138.587528,138.586106,138.535207,138.466658,138.862699,138.862181,138.861612,138.860460,138.822996,138.777405,138.975385
71,143.628051,137.972561,138.191619,138.303668,138.438009,138.886120,138.711309,138.710669,138.709955,138.708509,138.656784,138.583183,138.974595,138.974075,138.973516,138.972325,138.934577,138.887390,139.083244
72,143.749516,138.056284,138.284844,138.402279,138.542956,139.012193,138.832196,138.831568,138.830836,138.829367,138.776791,138.698199,139.085207,139.084687,139.084111,139.082945,139.044894,138.996054,139.189651
73,143.869297,138.144236,138.374965,138.498095,138.645360,139.136315,138.951581,138.950939,138.950204,138.948710,138.895295,138.811675,139.194616,139.194078,139.193496,139.192327,139.153973,139.103431,139.294795
74,143.987455,138.236565,138.462257,138.591154,138.745174,139.258594,139.069482,139.068831,139.068088,139.066569,139.012310,138.923711,139.302797,139.302273,139.301685,139.300497,139.261827,139.209556,139.398775
75,144.104027,138.332529,138.546606,138.681419,138.842354,139.379058,139.185945,139.185289,139.184532,139.182996,139.127879,139.034327,139.409811,139.409258,139.408722,139.407497,139.368492,139.314455,139.501791
76,144.219050,138.431408,138.628072,138.768975,138.937025,139.497790,139.301014,139.300346,139.299571,139.298009,139.242045,139.143559,139.515671,139.515168,139.514534,139.513338,139.474012,139.418140,139.603165
77,144.332604,138.532554,138.706700,138.853838,139.029192,139.614655,139.414699,139.414023,139.413248,139.411664,139.354835,139.251367,139.620417,139.619857,139.619244,139.618039,139.578350,139.520653,139.703636
78,144.444626,138.662395,138.782493,138.936052,139.118910,139.729896,139.527057,139.526366,139.525574,139.523977,139.466294,139.357980,139.723996,139.723456,139.722877,139.721621,139.681597,139.622024,139.802918
79,144.555263,138.834673,138.855479,139.015610,139.206066,139.843462,139.638109,139.637407,139.636601,139.634979,139.576438,139.463282,139.826509,139.825969,139.825372,139.824122,139.783705,139.722266,139.901146
80,144.664499,139.034733,138.925742,139.092557,139.290806,139.955326,139.747880,139.747172,139.746356,139.744715,139.685314,139.567283,139.927965,139.927415,139.926796,139.925557,139.884797,139.822171,139.998286
81,144.772380,139.250350,138.993317,139.166937,139.373153,140.065570,139.856400,139.855688,139.854867,139.853194,139.792931,139.670096,140.028377,140.027819,140.027212,140.025941,139.984785,139.921171,140.094356
82,144.878946,139.467202,139.058118,139.238773,139.453113,140.174228,139.963724,139.963001,139.962167,139.960469,139.899347,139.771649,140.127736,140.127170,140.126537,140.125289,140.083757,140.019094,140.189465
83,144.984208,139.684090,139.120228,139.308017,139.530701,140.281300,140.069844,140.069114,140.068271,140.066556,140.004568,139.872106,140.226082,140.225534,140.224899,140.223643,140.181698,140.115949,140.283472
84,145.088229,139.899849,139.222827,139.374820,139.605916,140.386839,140.174813,140.174078,140.173218,140.171482,140.108634,139.971318,140.323498,140.322896,140.322262,140.320911,140.278635,140.211776,140.376553
85,145.190997,140.121085,139.332864,139.439077,139.678825,140.490835,140.278638,140.277903,140.277029,140.275268,140.211571,140.069469,140.419876,140.419301,140.418662,140.417361,140.374648,140.306588,140.468651
86,145.292568,140.339293,139.475978,139.500905,139.749405,140.593344,140.381368,140.380611,140.379740,140.377960,140.313387,140.166532,140.515327,140.514744,140.514101,140.512795,140.469612,140.400407,140.559824
87,145.392996,140.552089,139.618227,139.587000,139.817722,140.694366,140.483005,140.482243,140.481353,140.479544,140.414101,140.262457,140.609846,140.609287,140.608612,140.607302,140.563707,140.493246,140.650026
88,145.492226,140.758294,139.759705,139.692953,139.883875,140.794084,140.583574,140.582812,140.581905,140.580077,140.513768,140.357391,140.703436,140.702895,140.702189,140.700878,140.656856,140.585123,140.739355
89,145.590355,140.957163,139.900484,139.821413,139.947942,140.892471,140.683136,140.682336,140.681433,140.679577,140.612404,140.451277,140.796174,140.795568,140.794955,140.793535,140.749093,140.676083,140.827781
90,145.687398,141.147309,140.040431,139.960294,140.009773,140.989498,140.781641,140.780855,140.779936,140.778058,140.710024,140.544155,140.887946,140.887354,140.886681,140.885335,140.840476,140.766130,140.915311
91,145.783371,141.328274,140.179604,140.098491,140.069430,141.085141,140.879164,140.878365,140.877438,140.875545,140.806625,140.636044,140.978883,140.978310,140.977614,140.976269,140.930936,140.855267,141.002011
92,145.878273,141.500025,140.317974,140.235833,140.167815,141.179408,140.975775,140.975328,140.974808,140.973693,140.902274,140.726968,141.068981,141.068386,141.067690,141.066331,141.020560,140.943538,141.087848
