2400MHz / Lb(0.05) dB
,h2(m),1000,1000,1000,1000,1000,10000,10000,10000,10000,10000,10000,20000,20000,20000,20000,20000,20000,20000
,h1(m),1.5,15,30,60,1000,1.5,15,30,60,1000,10000,1.5,15,30,60,1000,10000,20000
D (km),FSL
0,-100.041186,-95.893076,-95.774734,-95.641328,-95.368217,0.000000,-115.922268,-115.910428,-115.897253,-115.870845,-115.000674,0.000000,-121.943520,-121.937550,-121.930911,-121.917620,-121.490896,-115.898367,0.000000
1,-103.058284,-98.523892,-98.506173,-98.486215,-98.445901,-97.671592,-115.959723,-115.955003,-115.949740,-115.939157,-115.563113,-99.658265,-121.953122,-121.950687,-121.947977,-121.942542,-121.762206,-118.320660,-99.794200
2,-107.041568,-102.159354,-102.156594,-102.153211,-102.147476,-102.436693,-116.067643,-116.063124,-116.058086,-116.047973,-115.690831,-105.484120,-121.980596,-121.978195,-121.975523,-121.970161,-121.792370,-118.428927,-105.691613
3,-110.053455,-105.016781,-105.015871,-105.015006,-105.013489,-105.337147,-116.241085,-116.236855,-116.232162,-116.222708,-115.893445,-108.733957,-122.025897,-122.023549,-122.020931,-122.015681,-121.841583,-118.597269,-109.122164
4,-112.358538,-107.239670,-107.240088,-107.240758,-107.242202,-107.511607,-116.471779,-116.467905,-116.463620,-116.454981,-116.156790,-110.984663,-122.088386,-122.086093,-122.083549,-122.078434,-121.909065,-118.819427,-111.515602
5,-114.203951,-109.036128,-109.037186,-109.038310,-109.040807,-109.258480,-116.750082,-116.746594,-116.742740,-116.734965,-116.469599,-112.676849,-122.167213,-122.164998,-122.162533,-122.157581,-121.993807,-119.085496,-113.304354
6,-115.736511,-110.537659,-110.538743,-110.540022,-110.542738,-110.721979,-117.066419,-117.063245,-117.059708,-117.052674,-116.819888,-114.025683,-122.261383,-122.259253,-122.256870,-122.252114,-122.094636,-119.385406,-114.764332
7,-117.044269,-111.825054,-111.826221,-111.827587,-111.830376,-111.987818,-117.411611,-117.408820,-117.405703,-117.399488,-117.196657,-115.147156,-122.369790,-122.367746,-122.365470,-122.360900,-122.210260,-119.709775,-115.983812
8,-118.183757,-112.950999,-112.952144,-112.953550,-112.956202,-113.096146,-117.776843,-117.774401,-117.771684,-117.766259,-117.590555,-116.092109,-122.491226,-122.489277,-122.487107,-122.482751,-122.339314,-120.050618,-117.011962
9,-119.192832,-113.951146,-113.952309,-113.953568,-113.956139,-114.081671,-118.155071,-118.152922,-118.150572,-118.145830,-117.994144,-116.922088,-122.624485,-122.622628,-122.620561,-122.616432,-122.480386,-120.392224,-117.907867
10,-120.097968,-114.850656,-114.851718,-114.852901,-114.855418,-114.969001,-118.540509,-118.538659,-118.536631,-118.532496,-118.401652,-117.646748,-122.768305,-122.766548,-122.764589,-122.760680,-122.632101,-120.734515,-118.701199
11,-120.918375,-115.667792,-115.669230,-115.670870,-115.673988,-115.775977,-118.928663,-118.927037,-118.925267,-118.921734,-118.808718,-118.305865,-122.921501,-122.919829,-122.917976,-122.914273,-122.793114,-121.077498,-119.411973
12,-121.668440,-116.416383,-116.417903,-116.419535,-116.422725,-116.515949,-119.316015,-119.314616,-119.313056,-119.309997,-119.213248,-118.897626,-123.083285,-123.081677,-123.079885,-123.076284,-122.962142,-121.418334,-120.045939
13,-122.359312,-117.107168,-117.108704,-117.110395,-117.113617,-117.199217,-119.699906,-119.698722,-119.697391,-119.694760,-119.611769,-119.439343,-123.252125,-123.250613,-123.248931,-123.245540,-123.137967,-121.754956,-120.629610
14,-122.999457,-117.748315,-117.749986,-117.751690,-117.754995,-117.833916,-120.078500,-120.077482,-120.076332,-120.073997,-120.002771,-119.944534,-123.426970,-123.425539,-123.423951,-123.420761,-123.319474,-122.078790,-121.162689
15,-123.595903,-118.346631,-118.348341,-118.350130,-118.353559,-118.426491,-120.450490,-120.449542,-120.448517,-120.446449,-120.385145,-120.417194,-123.606798,-123.605456,-123.603957,-123.600972,-123.505653,-122.392245,-121.649460
16,-124.154169,-118.907472,-118.909248,-118.911153,-118.914618,-118.982284,-120.814674,-120.813981,-120.812981,-120.811240,-120.758277,-120.852191,-123.790729,-123.789462,-123.788061,-123.785248,-123.695541,-122.698958,-122.105580
17,-124.678798,-119.435249,-119.437159,-119.439127,-119.442763,-119.505614,-121.170664,-121.170023,-121.169298,-121.167620,-121.121847,-121.264185,-123.977907,-123.976728,-123.975410,-123.972778,-123.888321,-122.998682,-122.534837
18,-125.173661,-119.933731,-119.935736,-119.937808,-119.941626,-120.000034,-121.518189,-121.517598,-121.516921,-121.515626,-121.475632,-121.655789,-124.167609,-124.166505,-124.165268,-124.162802,-124.083680,-123.291237,-122.930007
19,-125.641954,-120.406029,-120.408115,-120.410319,-120.414313,-120.468670,-121.856966,-121.856426,-121.855826,-121.854611,-121.819826,-122.029127,-124.359153,-124.358118,-124.356954,-124.354649,-124.280623,-123.576627,-123.300413
20,-126.086288,-120.854684,-120.857031,-120.859247,-120.863445,-120.927728,-122.187055,-122.186472,-122.186200,-122.184930,-122.154304,-122.386084,-124.551946,-124.550971,-124.549884,-124.547708,-124.478417,-123.850476,-123.652754
21,-126.509056,-121.282026,-121.284468,-121.286935,-121.291315,-121.353482,-122.510585,-122.510095,-122.509402,-122.507974,-122.479473,-122.725550,-124.745471,-124.744544,-124.743520,-124.741472,-124.676561,-124.114760,-123.988816
22,-126.912271,-121.690006,-121.692611,-121.695210,-121.699839,-121.760171,-122.826075,-122.825483,-122.824818,-122.823542,-122.795537,-123.050287,-124.939227,-124.938355,-124.937402,-124.935478,-124.874613,-124.372601,-124.310102
23,-127.297655,-122.080286,-122.083044,-122.085776,-122.090637,-122.149515,-123.132910,-123.132383,-123.131794,-123.130587,-123.102743,-123.362917,-125.132831,-125.132025,-125.131112,-125.129310,-125.072190,-124.624203,-124.610407
24,-127.666607,-122.454191,-122.457228,-122.460119,-122.465208,-122.522951,-123.431500,-123.431024,-123.430472,-123.429395,-123.401520,-123.664427,-125.325923,-125.325154,-125.324314,-125.322614,-125.268945,-124.869781,-124.896168
25,-128.020599,-122.813100,-122.816342,-122.819431,-122.824730,-122.881738,-123.722159,-123.721711,-123.721204,-123.720201,-123.692023,-123.955596,-125.518238,-125.517494,-125.516695,-125.515108,-125.464609,-125.109571,-125.171210
26,-128.360741,-123.157985,-123.161500,-123.164735,-123.170192,-123.227036,-124.005130,-124.004721,-124.004242,-124.003306,-123.975782,-124.237220,-125.709425,-125.708721,-125.707985,-125.706461,-125.658893,-125.343764,-125.436450
27,-128.688105,-123.489703,-123.493493,-123.496894,-123.502398,-123.559797,-124.280705,-124.280312,-124.279855,-124.278990,-124.253232,-124.509969,-125.899332,-125.898697,-125.897984,-125.896564,-125.851651,-125.572555,-125.692629
28,-129.003570,-123.808792,-123.812942,-123.816452,-123.822023,-123.880971,-124.549144,-124.548780,-124.548357,-124.547562,-124.523311,-124.774418,-126.087772,-126.087142,-126.086505,-126.085118,-126.042716,-125.795756,-125.940419
29,-129.307996,-124.115642,-124.120311,-124.124010,-124.129856,-124.191363,-124.810756,-124.810403,-124.810024,-124.809265,-124.786267,-125.031027,-126.274568,-126.273994,-126.273240,-126.272035,-126.231860,-126.011724,-126.180439
30,-129.602108,-124.410605,-124.416135,-124.420331,-124.427099,-124.491627,-125.065813,-125.065481,-125.065116,-125.064368,-125.042478,-125.280357,-126.459576,-126.459023,-126.458465,-126.457174,-126.419061,-126.223033,-126.408242
31,-129.886618,-124.694587,-124.701564,-124.706630,-124.714750,-124.782510,-125.314602,-125.314269,-125.313896,-125.313202,-125.292184,-125.523358,-126.642772,-126.642242,-126.641622,-126.640326,-126.604201,-126.429898,-126.628368
32,-130.162109,-124.968906,-124.977734,-124.983916,-124.993600,-125.064547,-125.557290,-125.556968,-125.556614,-125.555968,-125.535667,-125.760039,-126.823857,-126.823345,-126.822781,-126.821688,-126.787284,-126.632447,-126.842418
33,-130.429148,-125.234714,-125.245540,-125.252916,-125.264134,-125.338268,-125.794178,-125.793897,-125.793561,-125.792933,-125.773234,-125.990509,-127.002962,-127.002540,-127.001971,-127.000894,-126.968033,-126.830845,-127.050800
34,-130.688206,-125.492643,-125.505514,-125.514054,-125.526784,-125.604187,-126.025554,-126.025253,-126.024946,-126.024309,-126.005074,-126.214843,-127.180039,-127.179541,-127.179036,-127.178126,-127.146570,-127.025284,-127.253817
35,-130.939774,-125.743121,-125.758040,-125.767736,-125.781934,-125.862738,-126.251541,-126.251268,-126.250986,-126.250362,-126.231507,-126.433956,-127.354937,-127.354568,-127.354053,-127.353117,-127.322937,-127.215856,-127.451779
36,-131.184266,-125.986441,-126.003415,-126.014279,-126.029963,-126.114330,-126.472430,-126.472159,-126.471856,-126.471272,-126.452686,-126.647507,-127.527708,-127.527313,-127.526896,-127.525931,-127.496922,-127.402781,-127.644998
37,-131.422075,-126.222884,-126.241991,-126.254035,-126.271226,-126.359349,-126.688394,-126.688135,-126.687822,-126.687263,-126.668859,-126.856204,-127.698315,-127.697969,-127.697414,-127.696498,-127.668831,-127.586073,-127.833690
38,-131.653549,-126.452705,-126.473981,-126.487255,-126.505988,-126.598127,-126.899643,-126.899387,-126.899117,-126.898525,-126.880220,-127.059881,-127.866776,-127.866398,-127.865907,-127.865036,-127.838244,-127.765956,-128.018123
39,-131.878998,-126.676134,-126.699718,-126.714256,-126.734610,-126.830996,-127.106359,-127.106075,-127.105798,-127.105236,-127.086994,-127.259168,-128.033370,-128.032884,-128.032323,-128.031336,-128.005449,-127.942517,-128.198486
40,-132.098777,-126.893466,-126.919429,-126.935285,-126.957332,-127.058265,-127.308682,-127.308422,-127.308149,-127.307578,-127.289332,-127.454046,-128.198861,-128.198385,-128.197831,-128.196777,-128.170373,-128.115856,-128.374227
41,-132.313135,-127.104894,-127.133386,-127.150660,-127.174417,-127.280125,-127.506836,-127.506566,-127.506286,-127.505749,-127.487419,-127.644725,-128.362100,-128.361636,-128.361178,-128.360117,-128.333019,-128.286101,-128.544935
42,-132.522327,-127.310623,-127.341772,-127.360485,-127.386143,-127.496905,-127.700920,-127.700672,-127.700396,-127.699826,-127.681389,-127.831522,-128.523204,-128.522753,-128.522232,-128.521253,-128.493497,-128.453382,-128.712232
43,-132.726587,-127.511088,-127.544825,-127.565068,-127.592643,-127.708834,-127.891127,-127.890891,-127.890582,-127.890069,-127.871444,-128.014174,-128.682112,-128.681673,-128.681207,-128.680266,-128.651800,-128.618078,-128.876267
44,-132.926172,-127.717870,-127.742732,-127.764589,-127.794236,-127.916131,-128.077611,-128.077370,-128.077086,-128.076531,-128.057723,-128.193301,-128.838862,-128.838463,-128.837968,-128.837010,-128.807907,-128.780288,-129.037160
45,-133.121264,-127.935769,-127.935667,-127.959233,-127.990979,-128.118968,-128.260488,-128.260250,-128.259953,-128.259450,-128.240360,-128.368810,-128.993526,-128.993067,-128.992643,-128.991741,-128.962707,-128.939395,-129.195093
46,-133.312073,-128.163104,-128.123810,-128.149160,-128.183155,-128.317555,-128.439889,-128.439640,-128.439389,-128.438784,-128.419482,-128.541020,-129.146077,-129.145672,-129.145220,-129.144313,-129.115884,-129.095915,-129.350076
47,-133.498799,-128.398468,-128.307300,-128.334541,-128.370901,-128.512064,-128.615932,-128.615680,-128.615398,-128.614821,-128.595234,-128.709896,-129.296588,-129.296187,-129.295707,-129.294851,-129.266991,-129.250044,-129.502333
48,-133.681592,-128.640611,-128.486280,-128.515531,-128.554361,-128.702671,-128.788755,-128.788495,-128.788215,-128.787634,-128.767726,-128.875657,-129.445079,-129.444671,-129.444231,-129.443362,-129.416004,-129.401641,-129.651933
49,-133.860600,-128.888354,-128.660828,-128.692177,-128.733613,-128.889430,-128.958447,-128.958187,-128.957878,-128.957324,-128.937046,-129.038303,-129.591555,-129.591167,-129.590741,-129.589875,-129.562970,-129.550906,-129.799019
50,-134.036004,-129.140298,-128.830692,-128.864237,-128.908388,-129.072117,-129.125123,-129.124857,-129.124569,-129.123965,-129.103357,-129.198054,-129.736091,-129.735712,-129.735287,-129.734441,-129.707928,-129.697612,-129.943559
51,-134.207939,-129.394138,-128.995103,-129.030958,-129.077957,-129.249838,-129.288898,-129.288634,-129.288320,-129.287723,-129.266723,-129.354954,-129.878706,-129.878333,-129.877915,-129.877088,-129.850933,-129.842148,-130.085779
52,-134.376551,-129.659247,-129.155069,-129.193304,-129.243215,-129.423701,-129.449841,-129.449573,-129.449268,-129.448654,-129.427282,-129.509144,-130.019433,-130.019065,-130.018649,-130.017843,-129.992007,-129.984471,-130.225719
53,-134.541929,-129.930156,-129.310995,-129.351825,-129.404778,-129.594279,-129.608071,-129.607790,-129.607490,-129.606859,-129.585049,-129.660678,-130.158305,-130.157949,-130.157545,-130.156734,-130.131186,-130.124728,-130.363415
54,-134.704228,-130.200186,-129.462028,-129.505437,-129.561607,-129.760440,-129.763659,-129.763387,-129.763064,-129.762434,-129.740189,-129.809655,-130.295371,-130.295015,-130.294624,-130.293812,-130.268510,-130.263066,-130.498974
55,-134.863558,-130.470740,-129.609566,-129.655709,-129.715241,-129.923836,-129.916698,-129.916418,-129.916101,-129.915457,-129.892768,-129.956171,-130.430654,-130.430308,-130.429911,-130.429115,-130.404029,-130.398878,-130.632738
56,-135.020014,-130.739127,-129.752896,-129.801933,-129.864920,-130.083756,-130.067281,-130.066998,-130.066664,-130.066005,-130.042867,-130.101003,-130.564208,-130.563857,-130.563462,-130.562678,-130.537762,-130.532994,-130.763927
57,-135.173703,-131.007767,-129.892937,-129.944994,-130.011623,-130.241138,-130.215450,-130.215171,-130.214843,-130.214168,-130.190554,-130.244156,-130.696035,-130.695688,-130.695304,-130.694522,-130.669755,-130.665150,-130.893547
58,-135.324713,-131.270882,-130.028990,-130.084144,-130.154544,-130.395195,-130.361311,-130.361026,-130.360688,-130.360002,-130.335914,-130.385014,-130.826196,-130.825839,-130.825462,-130.824692,-130.800054,-130.795448,-131.021109
59,-135.473152,-131.527669,-130.161348,-130.219780,-130.294034,-130.546349,-130.504935,-130.504635,-130.504310,-130.503594,-130.479015,-130.523658,-130.954705,-130.954363,-130.953986,-130.953216,-130.928669,-130.924015,-131.147311
60,-135.619093,-131.778566,-130.290743,-130.352545,-130.430865,-130.695320,-130.646362,-130.646053,-130.645706,-130.645014,-130.619938,-130.660145,-131.081613,-131.081273,-131.080889,-131.080130,-131.055659,-131.050761,-131.271866
61,-135.762644,-132.012893,-130.416456,-130.481645,-130.564316,-130.841326,-130.785673,-130.785367,-130.785014,-130.784294,-130.758717,-130.794549,-131.206936,-131.206600,-131.206227,-131.205467,-131.181046,-131.175760,-131.394653
62,-135.903836,-132.234377,-130.539292,-130.607184,-130.694169,-130.984310,-130.922928,-130.922616,-130.922262,-130.921534,-130.895459,-130.926914,-131.330734,-131.330402,-131.330017,-131.329251,-131.304893,-131.299122,-131.515535
63,-136.042769,-132.446032,-130.659302,-130.730140,-130.821645,-131.125510,-131.058200,-131.057878,-131.057521,-131.056772,-131.030172,-131.057330,-131.453006,-131.452663,-131.452337,-131.451533,-131.427159,-131.420817,-131.634830
64,-136.179520,-132.645390,-130.776257,-130.850296,-130.946555,-131.264647,-131.191520,-131.191202,-131.190830,-131.190088,-131.162952,-131.185821,-131.573795,-131.573459,-131.573109,-131.572330,-131.547950,-131.540933,-131.752631
65,-136.314160,-132.826000,-130.889872,-130.967223,-131.068380,-131.401218,-131.322962,-131.322636,-131.322255,-131.321489,-131.293843,-131.312463,-131.693142,-131.692807,-131.692450,-131.691667,-131.667262,-131.659489,-131.868924
66,-136.446736,-132.984950,-131.000184,-131.080871,-131.187072,-131.535273,-131.452575,-131.452237,-131.451853,-131.451073,-131.422897,-131.437301,-131.811064,-131.810732,-131.810388,-131.809593,-131.785152,-131.776532,-131.983611
67,-136.577316,-133.126865,-131.107279,-131.191590,-131.302770,-131.666851,-131.580409,-131.580067,-131.579676,-131.578872,-131.550156,-131.560377,-131.927601,-131.927282,-131.926878,-131.926132,-131.901614,-131.892071,-132.097007
68,-136.705977,-133.253969,-131.211315,-131.300089,-131.415879,-131.796446,-131.706501,-131.706156,-131.705759,-131.704948,-131.675687,-131.681758,-132.042762,-132.042419,-132.042052,-132.041292,-132.016716,-132.006209,-132.208781
69,-136.832747,-133.372544,-131.313126,-131.406471,-131.527384,-131.925133,-131.830905,-131.830552,-131.830156,-131.829328,-131.799517,-131.801458,-132.156612,-132.156229,-132.155880,-132.155129,-132.130468,-132.118906,-132.319159
70,-136.957695,-133.476225,-131.411872,-131.509914,-131.636125,-132.051668,-131.953674,-131.953318,-131.952909,-131.952074,-131.921709,-131.919554,-132.269125,-132.268780,-132.268403,-132.267636,-132.242876,-132.230226,-132.428229
71,-137.080878,-133.565821,-131.507638,-131.610548,-131.742189,-132.176093,-132.074849,-132.074475,-132.074057,-132.073207,-132.042303,-132.036082,-132.380380,-132.380035,-132.379670,-132.378870,-132.353998,-132.340211,-132.536089
72,-137.202340,-133.642380,-131.600440,-131.708284,-131.845482,-132.298481,-132.194447,-132.194088,-132.193656,-132.192791,-132.161325,-132.151102,-132.490349,-132.490007,-132.489627,-132.488857,-132.463853,-132.448876,-132.642497
73,-137.322126,-133.707108,-131.690156,-131.803227,-131.946199,-132.418783,-132.312540,-132.312171,-132.311740,-132.310859,-132.278841,-132.264580,-132.599114,-132.598756,-132.598373,-132.597605,-132.572470,-132.556252,-132.747642
74,-137.440281,-133.761272,-131.777051,-131.895411,-132.044295,-132.537097,-132.429148,-132.428773,-132.428338,-132.427439,-132.394867,-132.376620,-132.706650,-132.706307,-132.705923,-132.705140,-132.679861,-132.662378,-132.851623
75,-137.556850,-133.806126,-131.861013,-131.984799,-132.139726,-132.653450,-132.544314,-132.543937,-132.543492,-132.542585,-132.509443,-132.487240,-132.813018,-132.812649,-132.812318,-132.811504,-132.786062,-132.767276,-132.954639
76,-137.671876,-133.842847,-131.942100,-132.071474,-132.232609,-132.767916,-132.658084,-132.657698,-132.657240,-132.656315,-132.622615,-132.596475,-132.918230,-132.917913,-132.917487,-132.916707,-132.891117,-132.870961,-133.056014
77,-137.785396,-133.881845,-132.021437,-132.156580,-132.324529,-132.882148,-132.770467,-132.770078,-132.769623,-132.768684,-132.734408,-132.704286,-133.022327,-133.021956,-133.021554,-133.020769,-132.994989,-132.973475,-133.156487
78,-137.897460,-133.915678,-132.098113,-132.239211,-132.414219,-132.994899,-132.881520,-132.881120,-132.880652,-132.879708,-132.844868,-132.810903,-133.125256,-133.124907,-133.124541,-133.123712,-133.097770,-133.074846,-133.255770
79,-138.008076,-133.944130,-132.172053,-132.319253,-132.501422,-133.105950,-132.991265,-132.990858,-132.990380,-132.989418,-132.954010,-132.916209,-133.227118,-133.226771,-133.226390,-133.225572,-133.199410,-133.175088,-133.353999
80,-138.117319,-133.967833,-132.243340,-132.396751,-132.586283,-133.215275,-133.099727,-133.099316,-133.098832,-133.097860,-133.061881,-133.020214,-133.327922,-133.327568,-133.327167,-133.326365,-133.300033,-133.274993,-133.451140
81,-138.225208,-134.056958,-132.312005,-132.471746,-132.668824,-133.322953,-133.206934,-133.206524,-133.206038,-133.205043,-133.168492,-133.123031,-133.427681,-133.427320,-133.426934,-133.426105,-133.399552,-133.373993,-133.547212
82,-138.331762,-134.152204,-132.377963,-132.544261,-132.749051,-133.429018,-133.312943,-133.312525,-133.312031,-133.311019,-133.273898,-133.224587,-133.526385,-133.526019,-133.525609,-133.524809,-133.498054,-133.471916,-133.642321
83,-138.437042,-134.260815,-132.441295,-132.614248,-132.826978,-133.533467,-133.417746,-133.417324,-133.416825,-133.415803,-133.378107,-133.325049,-133.624075,-133.623729,-133.623320,-133.622516,-133.595523,-133.568771,-133.736330
84,-138.541042,-134.367361,-132.502129,-132.681854,-132.902605,-133.636353,-133.521394,-133.520970,-133.520459,-133.519424,-133.481159,-133.424265,-133.720833,-133.720437,-133.720031,-133.719138,-133.691988,-133.664598,-133.829412
