600MHz / Lb(0.10) dB
,h2(m),1000,1000,1000,1000,1000,10000,10000,10000,10000,10000,10000,20000,20000,20000,20000,20000,20000,20000
,h1(m),1.5,15,30,60,1000,1.5,15,30,60,1000,10000,1.5,15,30,60,1000,10000,20000
D (km),FSL
0,88,84.6,84.5,84.4,84.1,0,104.6,104.6,104.6,104.6,103.7,0,110.7,110.6,110.6,110.6,110.2,104.6,0
1,91,87.3,87.3,87.3,87.2,86.1,104.7,104.7,104.7,104.6,104.2,87.7,110.7,110.7,110.7,110.6,110.4,106.6,87.8
2,95,91.1,91.1,91.1,91,91.1,104.8,104.8,104.8,104.8,104.3,93.6,110.7,110.7,110.7,110.7,110.5,106.8,93.7
3,98,93.9,93.9,93.9,93.9,94.1,105,105,104.9,104.9,104.5,96.9,110.7,110.7,110.7,110.7,110.5,106.9,97.2
4,100.3,96.2,96.2,96.2,96.2,96.3,105.2,105.2,105.2,105.2,104.8,99.2,110.8,110.8,110.8,110.8,110.6,107.2,99.6
5,102.2,97.9,97.9,97.9,97.9,98.1,105.5,105.5,105.5,105.5,105.1,100.9,110.9,110.9,110.9,110.9,110.7,107.4,101.4
6,103.7,99.4,99.4,99.4,99.4,99.6,105.8,105.8,105.8,105.8,105.5,102.3,111,111,111,111,110.8,107.7,102.9
7,105,100.7,100.7,100.7,100.7,100.9,106.2,106.2,106.2,106.1,105.9,103.5,111.1,111.1,111.1,111.1,110.9,108.1,104.2
8,106.1,101.8,101.8,101.8,101.8,102,106.6,106.5,106.5,106.5,106.3,104.5,111.2,111.2,111.2,111.2,111,108.4,105.2
9,107.2,102.8,102.8,102.8,102.8,103,106.9,106.9,106.9,106.9,106.7,105.3,111.4,111.3,111.3,111.3,111.2,108.8,106.1
10,108.1,103.7,103.7,103.7,103.7,103.9,107.3,107.3,107.3,107.3,107.1,106.1,111.5,111.5,111.5,111.5,111.3,109.2,106.9
11,108.9,104.5,104.5,104.5,104.5,104.7,107.7,107.7,107.7,107.7,107.5,106.8,111.7,111.7,111.7,111.6,111.5,109.5,107.7
12,109.6,105.3,105.3,105.3,105.3,105.4,108.1,108.1,108.1,108.1,108,107.4,111.8,111.8,111.8,111.8,111.7,109.9,108.3
13,110.3,106.1,106,106,106,106.1,108.5,108.5,108.5,108.5,108.4,108,112,112,112,112,111.9,110.2,108.9
14,111,106.9,106.6,106.6,106.6,106.7,108.9,108.9,108.9,108.9,108.8,108.5,112.2,112.2,112.2,112.2,112,110.6,109.5
15,111.6,107.7,107.2,107.2,107.2,107.3,109.3,109.3,109.3,109.3,109.2,109,112.4,112.4,112.4,112.4,112.2,110.9,110
16,112.1,108.5,107.8,107.8,107.8,107.8,109.7,109.7,109.7,109.7,109.6,109.4,112.6,112.6,112.6,112.6,112.4,111.2,110.5
17,112.6,109.3,108.3,108.3,108.3,108.3,110.1,110.1,110.1,110,110,109.9,112.8,112.8,112.8,112.8,112.6,111.5,110.9
18,113.1,110.1,108.8,108.8,108.8,108.8,110.4,110.4,110.4,110.4,110.3,110.3,113,113,113,113,112.8,111.8,111.3
19,113.6,110.9,109.2,109.2,109.2,109.3,110.8,110.8,110.8,110.8,110.7,110.7,113.2,113.2,113.2,113.2,113,112.1,111.7
20,114,111.7,109.7,109.7,109.7,109.8,111.1,111.1,111.1,111.1,111,111,113.4,113.4,113.4,113.4,113.2,112.4,112.1
21,114.5,112.4,110.1,110.1,110.1,110.2,111.4,111.4,111.4,111.4,111.4,111.4,113.6,113.6,113.6,113.6,113.5,112.7,112.4
22,114.9,113,110.5,110.5,110.5,110.6,111.7,111.7,111.7,111.7,111.7,111.7,113.8,113.8,113.8,113.8,113.7,113,112.8
23,115.3,113.7,110.9,110.9,110.9,111,112,112,112,112,112,112.1,114,114,114,114,113.9,113.2,113.1
24,115.6,114.2,111.3,111.3,111.3,111.3,112.3,112.3,112.3,112.3,112.3,112.4,114.2,114.2,114.2,114.2,114.1,113.5,113.4
25,116,114.8,111.6,111.6,111.6,111.7,112.6,112.6,112.6,112.6,112.6,112.7,114.4,114.4,114.4,114.4,114.3,113.7,113.7
26,116.3,115.2,112,112,112,112,112.9,112.9,112.9,112.9,112.9,113,114.6,114.6,114.6,114.6,114.5,114,114
27,116.6,115.7,112.3,112.3,112.3,112.4,113.2,113.2,113.2,113.2,113.2,113.2,114.8,114.8,114.8,114.7,114.7,114.2,114.2
28,117,116.1,112.6,112.6,112.6,112.7,113.4,113.4,113.4,113.4,113.4,113.5,114.9,114.9,114.9,114.9,114.9,114.5,114.5
29,117.3,116.5,112.9,112.9,112.9,113,113.7,113.7,113.7,113.7,113.7,113.8,115.1,115.1,115.1,115.1,115.1,114.7,114.7
30,117.6,116.8,113.2,113.2,113.2,113.3,113.9,113.9,113.9,113.9,113.9,114,115.3,115.3,115.3,115.3,115.3,114.9,115
31,117.8,117.1,113.5,113.5,113.5,113.6,114.2,114.2,114.2,114.2,114.2,114.3,115.5,115.5,115.5,115.5,115.5,115.1,115.2
32,118.1,117.4,113.7,113.7,113.8,113.8,114.4,114.4,114.4,114.4,114.4,114.5,115.7,115.7,115.7,115.7,115.6,115.3,115.4
33,118.4,117.6,114,114,114,114.1,114.7,114.7,114.7,114.7,114.7,114.8,115.9,115.9,115.9,115.9,115.8,115.5,115.7
34,118.6,118,114.3,114.3,114.3,114.4,114.9,114.9,114.9,114.9,114.9,115,116.1,116.1,116.1,116.1,116,115.7,115.9
35,118.9,118.5,114.5,114.5,114.5,114.6,115.1,115.1,115.1,115.1,115.1,115.2,116.2,116.2,116.2,116.2,116.2,115.9,116.1
36,119.1,119,114.8,114.8,114.8,114.9,115.3,115.3,115.3,115.3,115.3,115.5,116.4,116.4,116.4,116.4,116.4,116.1,116.3
37,119.4,119.5,115,115,115,115.1,115.6,115.6,115.6,115.6,115.6,115.7,116.6,116.6,116.6,116.6,116.6,116.3,116.5
38,119.6,119.9,115.2,115.2,115.2,115.3,115.8,115.8,115.8,115.8,115.8,115.9,116.8,116.8,116.8,116.8,116.7,116.5,116.7
39,119.8,120.4,115.4,115.4,115.5,115.6,116,116,116,116,116,116.1,116.9,116.9,116.9,116.9,116.9,116.7,116.9
40,120.1,120.8,115.6,115.7,115.7,115.8,116.2,116.2,116.2,116.2,116.2,116.3,117.1,117.1,117.1,117.1,117.1,116.9,117
41,120.3,121.3,115.9,115.9,115.9,116,116.4,116.4,116.4,116.4,116.4,116.5,117.3,117.3,117.3,117.3,117.2,117,117.2
42,120.5,121.7,116.1,116.1,116.1,116.2,116.6,116.6,116.6,116.6,116.6,116.7,117.4,117.4,117.4,117.4,117.4,117.2,117.4
43,120.7,122.1,116.3,116.3,116.3,116.4,116.7,116.7,116.7,116.7,116.7,116.9,117.6,117.6,117.6,117.6,117.6,117.4,117.6
44,120.9,122.5,116.5,116.5,116.5,116.6,116.9,116.9,116.9,116.9,116.9,117.1,117.7,117.7,117.7,117.7,117.7,117.5,117.7
45,121.1,122.9,116.6,116.7,116.7,116.8,117.1,117.1,117.1,117.1,117.1,117.3,117.9,117.9,117.9,117.9,117.9,117.7,117.9
46,121.3,123.3,116.8,116.9,116.9,117,117.3,117.3,117.3,117.3,117.3,117.4,118,118,118,118,118,117.9,118
47,121.5,123.7,117,117,117.1,117.2,117.5,117.5,117.5,117.5,117.5,117.6,118.2,118.2,118.2,118.2,118.2,118,118.2
48,121.6,124.1,117.2,117.2,117.2,117.4,117.6,117.6,117.6,117.6,117.6,117.8,118.3,118.3,118.3,118.3,118.3,118.2,118.4
49,121.8,124.4,117.4,117.4,117.4,117.6,117.8,117.8,117.8,117.8,117.8,118,118.5,118.5,118.5,118.5,118.5,118.4,118.5
50,122,124.8,117.5,117.6,117.6,117.7,118,118,118,118,118,118.1,118.6,118.6,118.6,118.6,118.6,118.5,118.7
51,122.2,125.1,117.7,117.7,117.8,117.9,118.1,118.1,118.1,118.1,118.1,118.3,118.8,118.8,118.8,118.8,118.8,118.7,118.8
52,122.3,125.5,117.8,117.9,117.9,118.1,118.3,118.3,118.3,118.3,118.3,118.4,118.9,118.9,118.9,118.9,118.9,118.8,119
53,122.5,125.8,118,118,118.1,118.3,118.4,118.4,118.4,118.4,118.4,118.6,119,119,119,119,119,119,119.1
54,122.7,126.2,118.1,118.2,118.2,118.4,118.6,118.6,118.6,118.6,118.6,118.7,119.2,119.2,119.2,119.2,119.2,119.1,119.2
55,122.8,126.5,118.3,118.3,118.4,118.6,118.8,118.8,118.8,118.8,118.8,118.9,119.3,119.3,119.3,119.3,119.3,119.2,119.4
56,123,126.8,118.4,118.5,118.5,118.7,118.9,118.9,118.9,118.9,118.9,119,119.4,119.4,119.4,119.4,119.4,119.4,119.5
57,123.1,127.1,118.6,118.6,118.7,118.9,119,119,119,119,119,119.2,119.6,119.6,119.6,119.6,119.6,119.5,119.6
58,123.3,127.5,118.7,118.8,118.8,119.1,119.2,119.2,119.2,119.2,119.2,119.3,119.7,119.7,119.7,119.7,119.7,119.7,119.8
59,123.4,127.8,118.9,118.9,119,119.2,119.3,119.3,119.3,119.3,119.3,119.5,119.8,119.8,119.8,119.8,119.8,119.8,119.9
60,123.6,128.1,119,119,119.1,119.4,119.5,119.5,119.5,119.5,119.5,119.6,120,120,120,120,120,119.9,120
61,123.7,128.4,119.1,119.2,119.2,119.5,119.6,119.6,119.6,119.6,119.6,119.7,120.1,120.1,120.1,120.1,120.1,120.1,120.2
62,123.9,128.7,119.2,119.3,119.4,119.6,119.7,119.7,119.7,119.7,119.7,119.9,120.2,120.2,120.2,120.2,120.2,120.2,120.3
63,124,129,119.4,119.4,119.5,119.8,119.9,119.9,119.9,119.9,119.9,120,120.3,120.3,120.3,120.3,120.3,120.3,120.4
64,124.1,129.3,119.5,119.5,119.6,119.9,120,120,120,120,120,120.1,120.5,120.5,120.5,120.4,120.4,120.4,120.5
65,124.3,129.6,119.6,119.7,119.8,120.1,120.1,120.1,120.1,120.1,120.1,120.3,120.6,120.6,120.6,120.6,120.6,120.6,120.7
66,124.4,129.9,119.7,119.8,119.9,120.2,120.3,120.3,120.3,120.3,120.3,120.4,120.7,120.7,120.7,120.7,120.7,120.7,120.8
67,124.5,130.2,119.8,119.9,120,120.3,120.4,120.4,120.4,120.4,120.4,120.5,120.8,120.8,120.8,120.8,120.8,120.8,120.9
68,124.7,130.4,119.9,120,120.1,120.5,120.5,120.5,120.5,120.5,120.5,120.6,120.9,120.9,120.9,120.9,120.9,120.9,121
69,124.8,130.7,120,120.1,120.2,120.6,120.6,120.6,120.6,120.6,120.6,120.7,121,121,121,121,121,121,121.1
70,124.9,131,120.1,120.2,120.3,120.7,120.8,120.8,120.8,120.8,120.8,120.9,121.1,121.1,121.1,121.1,121.1,121.1,121.3
71,125,131.3,120.2,120.3,120.4,120.8,120.9,120.9,120.9,120.9,120.9,121,121.2,121.2,121.2,121.2,121.2,121.3,121.4
72,125.2,131.6,120.3,120.4,120.5,121,121,121,121,121,121,121.1,121.4,121.4,121.4,121.4,121.4,121.4,121.5
73,125.3,131.8,120.4,120.5,120.6,121.1,121.1,121.1,121.1,121.1,121.1,121.2,121.5,121.5,121.5,121.5,121.5,121.5,121.6
74,125.4,132.1,120.5,120.6,120.7,121.2,121.2,121.2,121.2,121.2,121.2,121.3,121.6,121.6,121.6,121.6,121.6,121.6,121.7
75,125.5,132.4,120.6,120.7,120.8,121.3,121.3,121.3,121.3,121.3,121.3,121.4,121.7,121.7,121.7,121.7,121.7,121.7,121.8
76,125.6,132.6,120.7,120.8,120.9,121.4,121.5,121.5,121.5,121.5,121.4,121.5,121.8,121.8,121.8,121.8,121.8,121.8,121.9
77,125.7,132.9,120.7,120.9,121,121.6,121.6,121.6,121.6,121.6,121.6,121.6,121.9,121.9,121.9,121.9,121.9,121.9,122
78,125.9,133.2,120.8,121,121.1,121.7,121.7,121.7,121.7,121.7,121.7,121.7,122,122,122,122,122,122,122.1
79,126,133.4,120.9,121,121.2,121.8,121.8,121.8,121.8,121.8,121.8,121.9,122.1,122.1,122.1,122.1,122.1,122.1,122.2
80,126.1,133.7,121,121.1,121.3,121.9,121.9,121.9,121.9,121.9,121.9,122,122.2,122.2,122.2,122.2,122.2,122.2,122.3
81,126.2,133.9,121.1,121.2,121.4,122,122,122,122,122,122,122.1,122.3,122.3,122.3,122.3,122.3,122.3,122.4
82,126.3,134.2,121.2,121.3,121.5,122.1,122.1,122.1,122.1,122.1,122.1,122.2,122.4,122.4,122.4,122.4,122.4,122.4,122.5
83,126.4,134.5,121.3,121.3,121.5,122.2,122.2,122.2,122.2,122.2,122.2,122.3,122.5,122.5,122.5,122.5,122.5,122.5,122.6
84,126.5,134.7,121.5,121.4,121.6,122.3,122.3,122.3,122.3,122.3,122.3,122.4,122.6,122.6,122.6,122.6,122.6,122.6,122.7
85,126.6,135,121.7,121.5,121.7,122.4,122.4,122.4,122.4,122.4,122.4,122.5,122.7,122.7,122.7,122.7,122.7,122.7,122.8
86,126.7,135.2,122,121.5,121.8,122.5,122.5,122.5,122.5,122.5,122.5,122.6,122.8,122.8,122.8,122.8,122.8,122.8,122.9
87,126.8,135.5,122.2,121.7,121.8,122.6,122.6,122.6,122.6,122.6,122.6,122.7,122.9,122.9,122.9,122.9,122.9,122.9,123
88,126.9,135.7,122.4,121.8,121.9,122.7,122.7,122.7,122.7,122.7,122.7,122.7,122.9,122.9,122.9,122.9,122.9,123,123.1
89,127,136,122.6,122,122,122.8,122.8,122.8,122.8,122.8,122.8,122.8,123,123,123,123,123,123.1,123.2
90,127.1,136.3,122.8,122.1,122,122.9,122.9,122.9,122.9,122.9,122.9,122.9,123.1,123.1,123.1,123.1,123.1,123.2,123.3
91,127.2,136.5,123,122.2,122.2,123,123,123,123,123,123,123,123.2,123.2,123.2,123.2,123.2,123.2,123.4
92,127.3,136.8,123.2,122.4,122.3,123.1,123.1,123.1,123.1,123.1,123.1,123.1,123.3,123.3,123.3,123.3,123.3,123.3,123.4
93,127.4,137.1,123.5,122.5,122.4,123.1,123.2,123.2,123.2,123.2,123.2,123.2,123.4,123.4,123.4,123.4,123.4,123.4,123.5
94,127.5,137.3,123.7,122.6,122.5,123.2,123.3,123.3,123.3,123.3,123.3,123.3,123.5,123.5,123.5,123.5,123.5,123.5,123.6
95,127.6,137.6,123.9,122.8,122.7,123.3,123.3,123.3,123.3,123.3,123.3,123.4,123.6,123.6,123.6,123.6,123.6,123.6,123.7
96,127.7,137.9,124.1,122.9,122.8,123.4,123.4,123.4,123.4,123.4,123.4,123.5,123.7,123.7,123.7,123.7,123.6,123.7,123.8
97,127.7,138.2,124.3,123,122.9,123.5,123.5,123.5,123.5,123.5,123.5,123.6,123.7,123.7,123.7,123.7,123.7,123.8,123.9
98,127.8,138.5,124.5,123.2,123.1,123.6,123.6,123.6,123.6,123.6,123.6,123.6,123.8,123.8,123.8,123.8,123.8,123.8,124
99,127.9,138.8,124.6,123.3,123.2,123.6,123.7,123.7,123.7,123.7,123.7,123.7,123.9,123.9,123.9,123.9,123.9,123.9,124
100,128,139.1,124.8,123.4,123.3,123.7,123.8,123.8,123.8,123.8,123.8,123.8,124,124,124,124,124,124,124.1
101,128.1,139.4,124.9,123.5,123.5,123.8,123.9,123.9,123.9,123.9,123.9,123.9,124.1,124.1,124.1,124.1,124.1,124.1,124.2
102,128.2,139.7,125,123.7,123.6,123.9,124,124,124,124,124,124,124.1,124.1,124.1,124.1,124.1,124.2,124.3
103,128.3,140,125.2,123.8,123.7,124,124,124,124,124,124.1,124.1,124.2,124.2,124.2,124.2,124.2,124.3,124.4
104,128.4,140.3,125.3,124,123.8,124,124.1,124.1,124.1,124.1,124.1,124.1,124.3,124.3,124.3,124.3,124.3,124.3,124.4
105,128.4,140.5,125.4,124.1,124,124.1,124.2,124.2,124.2,124.2,124.2,124.2,124.4,124.4,124.4,124.4,124.4,124.4,124.5
106,128.5,140.8,125.4,124.3,124.1,124.2,124.3,124.3,124.3,124.3,124.3,124.3,124.5,124.5,124.5,124.5,124.5,124.5,124.6
107,128.6,141.1,125.5,124.5,124.2,124.2,124.4,124.4,124.4,124.4,124.4,124.4,124.5,124.5,124.5,124.5,124.5,124.6,124.7
108,128.7,141.4,125.6,124.6,124.3,124.3,124.4,124.4,124.4,124.4,124.5,124.5,124.6,124.6,124.6,124.6,124.6,124.6,124.8
109,128.8,141.7,125.7,124.8,124.5,124.4,124.5,124.5,124.5,124.5,124.5,124.5,124.7,124.7,124.7,124.7,124.7,124.7,124.8
110,128.8,142,125.8,125,124.6,124.4,124.6,124.6,124.6,124.6,124.6,124.6,124.8,124.8,124.8,124.8,124.8,124.8,124.9
111,128.9,142.3,125.9,125.2,124.7,124.5,124.7,124.7,124.7,124.7,124.7,124.7,124.8,124.8,124.8,124.8,124.8,124.9,125
112,129,142.5,125.9,125.4,124.8,124.6,124.8,124.8,124.8,124.8,124.8,124.8,124.9,124.9,124.9,124.9,124.9,124.9,125
113,129.1,142.8,126,125.6,124.9,124.6,124.9,124.8,124.8,124.8,124.9,124.8,125,125,125,125,125,125,125.1
114,129.2,143.1,126.1,125.8,125,124.7,125,124.9,124.9,124.9,124.9,124.9,125.1,125.1,125.1,125.1,125.1,125.1,125.2
115,129.2,143.4,126.2,125.9,125.2,124.8,125.1,125,125,125,125,125,125.1,125.1,125.1,125.1,125.1,125.2,125.3
116,129.3,143.7,126.2,126.1,125.3,124.8,125.2,125.1,125.1,125.1,125.1,125,125.2,125.2,125.2,125.2,125.2,125.2,125.3
117,129.4,143.9,126.3,126.2,125.4,124.9,125.3,125.1,125.1,125.1,125.2,125.1,125.3,125.3,125.3,125.3,125.3,125.3,125.4
118,129.5,144.2,126.7,126.3,125.5,124.9,125.4,125.2,125.2,125.2,125.2,125.2,125.3,125.3,125.3,125.3,125.3,125.4,125.5
119,129.5,144.5,127.2,126.4,125.6,125,125.4,125.3,125.3,125.3,125.3,125.3,125.4,125.4,125.4,125.4,125.4,125.4,125.5
120,129.6,144.8,127.6,126.5,125.7,125.1,125.5,125.4,125.4,125.4,125.4,125.3,125.5,125.5,125.5,125.5,125.5,125.5,125.6
121,129.7,145,128,126.6,125.8,125.1,125.6,125.4,125.4,125.4,125.5,125.4,125.6,125.6,125.6,125.6,125.5,125.6,125.7
122,129.7,145.3,128.4,126.6,125.9,125.2,125.7,125.5,125.5,125.5,125.5,125.5,125.6,125.6,125.6,125.6,125.6,125.6,125.7
123,129.8,145.6,128.8,126.7,126,125.2,125.8,125.6,125.6,125.6,125.6,125.5,125.7,125.7,125.7,125.7,125.7,125.7,125.8
124,129.9,145.9,129.1,126.8,126.2,125.3,125.9,125.6,125.6,125.6,125.7,125.6,125.8,125.8,125.8,125.8,125.8,125.8,125.9
125,130,146.1,129.4,126.9,126.3,125.3,126,125.7,125.7,125.7,125.7,125.7,125.8,125.8,125.8,125.8,125.8,125.8,125.9
126,130,146.4,129.6,126.9,126.5,125.4,126.2,125.8,125.8,125.8,125.8,125.7,125.9,125.9,125.9,125.9,125.9,125.9,126
127,130.1,146.7,130,127,126.6,125.4,126.3,125.8,125.8,125.8,125.9,125.8,126,126,126,126,126,126,126.1
128,130.2,146.9,130.4,127.1,126.8,125.5,126.4,125.9,125.9,125.9,125.9,125.9,126,126,126,126,126,126,126.1
129,130.2,147.2,130.7,127.2,126.9,125.5,126.5,126,126,126,126,125.9,126.1,126.1,126.1,126.1,126.1,126.1,126.2
130,130.3,147.5,131.1,127.2,127.1,125.6,126.6,126,126,126.1,126.1,126,126.2,126.2,126.2,126.2,126.1,126.2,126.3
131,130.4,147.7,131.5,127.3,127.2,125.6,126.6,126.1,126.1,126.1,126.1,126.1,126.2,126.2,126.2,126.2,126.2,126.2,126.3
132,130.4,148,131.8,127.4,127.3,125.7,126.7,126.2,126.2,126.2,126.2,126.1,126.3,126.3,126.3,126.3,126.3,126.3,126.4
133,130.5,148.2,132.2,127.4,127.4,125.7,126.8,126.2,126.2,126.2,126.3,126.2,126.3,126.3,126.3,126.3,126.3,126.4,126.4
134,130.6,148.5,132.6,127.5,127.4,125.7,126.9,126.3,126.3,126.3,126.3,126.3,126.4,126.4,126.4,126.4,126.4,126.4,126.5
135,130.6,148.8,133,127.6,127.5,125.8,127,126.4,126.4,126.4,126.4,126.3,126.5,126.5,126.5,126.5,126.5,126.5,126.6
136,130.7,149.3,133.4,128,127.6,125.9,127.1,126.4,126.4,126.4,126.5,126.4,126.5,126.5,126.5,126.5,126.5,126.5,126.6
137,130.7,150,133.7,128.4,127.7,126,127.2,126.5,126.5,126.5,126.5,126.4,126.6,126.6,126.6,126.6,126.6,126.6,126.7
138,130.8,150.7,134.1,128.9,127.7,126.1,127.3,126.6,126.6,126.6,126.6,126.5,126.7,126.7,126.7,126.7,126.6,126.7,126.7
139,130.9,151.4,134.5,129.3,127.8,126.2,127.4,126.6,126.6,126.6,126.7,126.6,126.7,126.7,126.7,126.7,126.7,126.7,126.8
140,130.9,152.1,134.9,129.8,127.8,126.3,127.5,126.7,126.7,126.7,126.7,126.6,126.8,126.8,126.8,126.8,126.8,126.8,126.9
141,131,152.8,135.3,130.2,127.9,126.4,127.6,126.8,126.8,126.8,126.8,126.7,126.8,126.8,126.8,126.8,126.8,126.8,126.9
142,131.1,153.5,135.6,130.7,128,126.4,127.7,126.8,126.8,126.8,126.8,126.7,126.9,126.9,126.9,126.9,126.9,126.9,127
143,131.1,154.2,136,131.1,128,126.5,127.8,126.9,126.9,126.9,126.9,126.8,127,127,127,127,126.9,127,127
144,131.2,154.9,136.4,131.6,128.1,126.6,127.9,126.9,126.9,126.9,127,126.9,127,127,127,127,127,127,127.1
145,131.2,155.6,136.8,132,128.2,126.7,128,127,127,127,127,126.9,127.1,127.1,127.1,127.1,127.1,127.1,127.2
146,131.3,156.3,137.1,132.5,128.2,126.8,128.1,127.1,127.1,127.1,127.1,127,127.1,127.1,127.1,127.1,127.1,127.1,127.2
147,131.4,157,137.8,132.9,128.3,126.9,128.3,127.1,127.1,127.1,127.2,127,127.2,127.2,127.2,127.2,127.2,127.2,127.3
148,131.4,157.7,138.5,133.3,128.3,127,128.4,127.2,127.2,127.2,127.2,127.1,127.2,127.2,127.2,127.2,127.2,127.2,127.3
149,131.5,158.4,139.2,133.8,128.4,127,128.5,127.2,127.2,127.2,127.3,127.1,127.3,127.3,127.3,127.3,127.3,127.3,127.4
150,131.5,159.1,139.9,134.2,128.5,127.1,128.6,127.3,127.3,127.3,127.3,127.2,127.4,127.4,127.4,127.4,127.3,127.4,127.4
151,131.6,159.8,140.6,134.7,129,127.2,128.7,127.3,127.3,127.4,127.4,127.3,127.4,127.4,127.4,127.4,127.4,127.4,127.5
152,131.7,160.5,141.3,135.1,129.5,127.3,128.8,127.4,127.4,127.4,127.4,127.3,127.5,127.5,127.5,127.5,127.5,127.5,127.5
153,131.7,161.2,142,135.6,130,127.4,128.9,127.5,127.5,127.5,127.5,127.4,127.5,127.5,127.5,127.5,127.5,127.5,127.6
154,131.8,161.9,142.7,136.3,130.5,127.5,129,127.5,127.5,127.5,127.6,127.4,127.6,127.6,127.6,127.6,127.6,127.6,127.6
155,131.8,162.6,143.4,137,131,127.5,129.1,127.6,127.6,127.6,127.6,127.5,127.6,127.6,127.6,127.6,127.6,127.6,127.7
156,131.9,163.3,144.1,137.7,131.5,127.6,129.2,127.6,127.6,127.6,127.7,127.5,127.7,127.7,127.7,127.7,127.7,127.7,127.8
157,131.9,163.9,144.8,138.4,132,127.7,129.3,127.7,127.7,127.7,127.7,127.6,127.7,127.7,127.7,127.7,127.7,127.7,127.8
158,132,164.6,145.5,139.1,132.5,127.8,129.4,127.7,127.7,127.7,127.8,127.6,127.8,127.8,127.8,127.8,127.8,127.8,127.9
159,132,165.3,146.2,139.8,133,127.8,129.5,127.8,127.8,127.8,127.8,127.7,127.9,127.9,127.9,127.9,127.8,127.8,127.9
160,132.1,166,146.9,140.5,133.5,127.9,129.6,127.8,127.9,127.9,127.9,127.7,127.9,127.9,127.9,127.9,127.9,127.9,128
161,132.2,166.7,147.6,141.2,134,128,129.7,127.9,127.9,127.9,128,127.8,128,128,128,128,127.9,127.9,128
162,132.2,167.4,148.3,141.9,134.5,128.1,129.8,128,128,128,128,127.8,128,128,128,128,128,128,128.1
163,132.3,168.1,149,142.6,135.2,128.2,129.9,128,128,128,128.1,127.9,128.1,128.1,128.1,128.1,128,128,128.1
164,132.3,168.8,149.7,143.3,135.9,128.2,130,128.1,128.1,128.1,128.1,127.9,128.1,128.1,128.1,128.1,128.1,128.1,128.2
165,132.4,169.5,150.4,144,136.6,128.3,130.1,128.1,128.1,128.1,128.2,128,128.2,128.2,128.2,128.2,128.2,128.2,128.2
166,132.4,170.2,151.1,144.7,137.3,128.4,130.2,128.2,128.2,128.2,128.2,128,128.2,128.2,128.2,128.2,128.2,128.2,128.3
167,132.5,170.9,151.8,145.4,138,128.4,130.3,128.2,128.2,128.2,128.3,128.1,128.3,128.3,128.3,128.3,128.3,128.3,128.3
168,132.5,171.6,152.5,146.1,138.7,128.5,130.4,128.3,128.3,128.3,128.3,128.1,128.3,128.3,128.3,128.3,128.3,128.3,128.4
169,132.6,172.3,153.2,146.8,139.4,128.6,130.5,128.3,128.3,128.3,128.4,128.2,128.4,128.4,128.4,128.4,128.4,128.4,128.4
170,132.6,173,153.9,147.5,140.1,128.7,130.6,128.4,128.4,128.4,128.4,128.2,128.4,128.4,128.4,128.4,128.4,128.4,128.5
171,132.7,173.7,154.6,148.3,140.9,128.7,130.7,128.4,128.4,128.4,128.5,128.3,128.5,128.5,128.5,128.5,128.5,128.4,128.5
172,132.7,174.4,155.3,149,141.6,128.8,130.8,128.5,128.5,128.5,128.5,128.3,128.5,128.5,128.5,128.5,128.5,128.5,128.6
173,132.8,175.1,156,149.7,142.3,128.9,130.9,128.5,128.5,128.5,128.6,128.4,128.6,128.6,128.6,128.6,128.6,128.5,128.6
