15500MHz / Lb(0.05) dB
,h2(m),1000,1000,1000,1000,1000,10000,10000,10000,10000,10000,10000,20000,20000,20000,20000,20000,20000,20000
,h1(m),1.5,15,30,60,1000,1.5,15,30,60,1000,10000,1.5,15,30,60,1000,10000,20000
D (km),FSL
0,116.243595,112.134090,112.015226,111.881240,111.606970,-0.000000,132.195151,132.182789,132.169034,132.141466,131.234955,-0.000000,138.216402,138.209910,138.202692,138.188241,137.725177,132.100780,-0.000000
1,119.260693,114.780937,114.762851,114.742487,114.701371,113.912667,132.232961,132.227717,132.221872,132.210125,131.797591,115.860674,138.226094,138.223136,138.219845,138.213249,137.996531,134.523071,115.996609
2,123.243977,118.448186,118.445197,118.441557,118.435322,118.716432,132.341943,132.336895,132.331270,132.319981,131.925901,121.686530,138.253836,138.250911,138.247657,138.241130,138.026831,134.631338,121.894023
3,126.255864,121.341431,121.340357,121.339312,121.337441,121.655548,132.517136,132.512370,132.507080,132.496431,132.129486,124.936366,138.299586,138.296712,138.293509,138.287087,138.076268,134.799680,125.324574
4,128.560948,123.601471,123.601763,123.602297,123.603471,123.868667,132.750237,132.745815,132.740920,132.731060,132.394158,127.187074,138.362706,138.359882,138.356749,138.350454,138.144066,135.021838,127.718012
5,130.406360,125.435659,125.436618,125.437631,125.439912,125.654201,133.031551,133.027499,133.023019,133.013990,132.708616,128.879259,138.442342,138.439592,138.436531,138.430389,138.229212,135.287908,129.506763
6,131.938920,126.975227,126.976225,126.977411,126.979944,127.156358,133.351445,133.347690,133.343505,133.335178,133.060839,130.228094,138.537498,138.534826,138.531842,138.525882,138.330533,135.587818,130.966742
7,133.246678,128.300831,128.301925,128.303213,128.305846,128.460854,133.700677,133.697284,133.693498,133.685942,133.439792,131.349567,138.647064,138.644472,138.641585,138.635796,138.446734,135.912186,132.186222
8,134.386166,129.465096,129.466177,129.467517,129.470030,129.607841,134.070373,134.067305,134.063893,134.057075,133.836086,132.294520,138.769826,138.767320,138.764532,138.758938,138.576449,136.253030,133.214372
9,135.395241,130.503638,130.504747,130.505944,130.508392,130.632019,134.453429,134.450629,134.447555,134.441363,134.242251,133.124499,138.904574,138.902150,138.899454,138.894067,138.718260,136.594635,134.110278
10,136.300377,131.441595,131.442609,131.443736,131.446145,131.558002,134.844010,134.841482,134.838700,134.833052,134.652489,133.849159,139.050036,139.047703,139.045103,139.039914,138.870791,136.936926,134.903609
11,137.120785,132.297216,132.298608,132.300200,132.303219,132.403631,135.237576,135.235241,135.232685,135.227575,135.062415,134.508275,139.205022,139.202763,139.200258,139.195248,139.032691,137.279910,135.614383
12,137.870849,133.084316,133.085797,133.087385,133.090485,133.182253,135.630570,135.628433,135.626051,135.621346,135.469912,135.100036,139.368736,139.366529,139.364070,139.359136,139.202673,137.620746,136.248349
13,138.561721,133.813636,133.815136,133.816787,133.819928,133.904168,136.020299,136.018345,136.016157,136.011808,135.871493,135.641752,139.539637,139.537513,139.535150,139.530397,139.379516,137.957367,136.832020
14,139.201866,134.493328,134.494973,134.496639,134.499869,134.577511,136.404901,136.403080,136.401036,136.396908,136.265634,136.146942,139.716665,139.714608,139.712325,139.707742,139.562100,138.281202,137.365099
15,139.798312,135.130206,135.131891,135.133646,135.137009,135.208727,136.783047,136.781261,136.779303,136.775364,136.651213,136.619602,139.898791,139.896809,139.894598,139.890189,139.749411,138.594657,137.851870
16,140.356579,135.729617,135.731372,135.733248,135.736647,135.803160,137.153510,137.151946,137.149973,137.146282,137.027608,137.054599,140.085127,140.083205,140.081075,140.076804,139.940482,138.901370,138.307990
17,140.881207,136.295966,136.297862,136.299805,136.303382,136.365130,137.515890,137.514342,137.512605,137.508895,137.394490,137.466593,140.274809,140.272959,140.270894,140.266769,140.134492,139.201094,138.737246
18,141.376071,136.833027,136.835023,136.837073,136.840839,136.898182,137.869903,137.868367,137.866636,137.863229,137.751630,137.858196,140.467105,140.465314,140.463313,140.459316,140.331124,139.493649,139.132417
19,141.844363,137.343908,137.345987,137.348173,137.352121,137.405450,138.215252,138.213728,138.212034,138.208622,138.099217,138.231533,140.661330,140.659590,140.657643,140.653769,140.529381,139.779039,139.502822
20,142.288697,137.831139,137.833497,137.835689,137.839846,137.903136,138.551989,138.550383,138.548978,138.545423,138.437122,138.588489,140.856881,140.855184,140.853293,140.849510,140.728526,140.052888,139.855164
21,142.711466,138.297052,138.299510,138.301967,138.306308,138.367515,138.882227,138.880680,138.878808,138.875011,138.765745,138.927954,141.053236,141.051568,141.049721,141.046025,140.928053,140.317171,140.191225
22,143.114680,138.743598,138.746227,138.748821,138.753417,138.812823,139.204492,139.202802,139.200913,139.197181,139.085291,139.252690,141.249888,141.248257,141.246461,141.242847,141.127520,140.575013,140.512511
23,143.500064,139.172432,139.175223,139.177952,139.182785,139.240783,139.518153,139.516488,139.514633,139.510881,139.396003,139.565319,141.446450,141.444867,141.443089,141.439555,141.326541,140.826615,140.812815
24,143.869016,139.584855,139.587951,139.590843,139.595904,139.652832,139.823617,139.821963,139.820100,139.816390,139.698306,139.866828,141.642556,141.640991,141.639264,141.635789,141.524766,141.072192,141.098576
25,144.223009,139.982250,139.985571,139.988670,139.993937,140.050228,140.121195,140.119528,140.117665,140.113939,139.992355,140.157996,141.837938,141.836377,141.834670,141.831265,141.721925,141.311983,141.373618
26,144.563150,140.365554,140.369180,140.372429,140.377841,140.434130,140.411124,140.409457,140.407576,140.403827,140.279677,140.439619,142.032240,142.030699,142.029033,142.025645,141.917726,141.546176,141.638857
27,144.890515,140.734611,140.738553,140.741972,140.747400,140.804493,140.693694,140.692002,140.690098,140.686328,140.560707,140.712366,142.225307,142.223815,142.222148,142.218820,142.112021,141.774967,141.895036
28,145.205980,141.087572,141.091931,141.095448,141.100890,141.159737,140.969162,140.967458,140.965542,140.961751,140.834381,140.976814,142.416948,142.415440,142.413828,142.410485,142.304642,141.998167,142.142826
29,145.510405,141.426459,141.431439,141.435149,141.440854,141.502591,141.237833,141.236100,141.234183,141.230336,141.100947,141.233422,142.606983,142.605511,142.603755,142.600550,142.495361,142.214135,142.382845
30,145.804517,141.752196,141.758239,141.762512,141.769238,141.834317,141.499981,141.498227,141.496277,141.492348,141.360780,141.482750,142.795266,142.793794,142.792213,142.788872,142.684152,142.425445,142.610647
31,146.089027,142.066099,142.073944,142.079240,142.087507,142.156152,141.755888,141.754091,141.752086,141.748118,141.614121,141.725750,142.981772,142.980301,142.978633,142.975238,142.870898,142.632309,142.830773
32,146.364518,142.369370,142.379531,142.386146,142.396199,142.468309,142.005719,142.003891,142.001860,141.997845,141.861251,141.962429,143.166195,143.164719,143.163085,143.159847,143.055601,142.834858,143.044822
33,146.631557,142.665095,142.676639,142.684267,142.696065,142.771633,142.249774,142.247946,142.245885,142.241795,142.102475,142.192897,143.348667,143.347262,143.345597,143.342325,143.237982,143.033256,143.253204
34,146.890616,142.953562,142.967607,142.975815,142.987853,143.066921,142.488342,142.486451,142.484373,142.480178,142.337984,142.417229,143.529140,143.527635,143.526010,143.522858,143.418164,143.227695,143.456220
35,147.142184,143.234673,143.251220,143.260731,143.273736,143.355032,142.721541,142.719636,142.717536,142.713260,142.568097,142.636341,143.707459,143.706062,143.704402,143.701173,143.596188,143.418267,143.654182
36,147.386675,143.507756,143.526807,143.537625,143.552194,143.635007,142.949664,142.947719,142.945550,142.941219,142.792964,142.849890,143.883674,143.882228,143.880643,143.877334,143.771841,143.605192,143.847400
37,147.624484,143.774516,143.796162,143.808297,143.824451,143.909234,143.172882,143.170907,143.168680,143.164279,143.012836,143.058585,144.057748,144.056329,144.054578,144.051268,143.945429,143.788484,144.036092
38,147.855958,144.034923,144.059213,144.072722,144.090496,144.177745,143.391405,143.389390,143.387160,143.382630,143.227905,143.262259,144.229697,144.228224,144.226512,144.223196,144.116528,143.968367,144.220524
39,148.081407,144.288378,144.315472,144.330388,144.349862,144.439682,143.605415,143.603327,143.601042,143.596447,143.438396,143.461544,144.399799,144.398193,144.396386,144.392904,144.285430,144.144928,144.400886
40,148.301186,144.535155,144.565139,144.581519,144.602759,144.695333,143.815048,143.812943,143.810614,143.805913,143.644461,143.656420,144.568816,144.567198,144.565372,144.561772,144.452059,144.318266,144.576626
41,148.515544,144.775772,144.808824,144.826776,144.849794,144.946240,144.020531,144.018372,144.015989,144.011226,143.846283,143.847096,144.735599,144.733970,144.732217,144.728556,144.616418,144.488511,144.747333
42,148.724736,145.012200,145.048491,145.068051,145.093078,145.195144,144.221961,144.219782,144.217355,144.212461,144.043997,144.033891,144.900265,144.898625,144.896781,144.893153,144.778616,144.655793,144.914630
43,148.929000,145.242766,145.282503,145.303774,145.330818,145.438916,144.419531,144.417321,144.414811,144.409880,144.237804,144.216541,145.062751,145.061100,145.059285,145.055642,144.938648,144.820489,145.078664
44,149.128577,145.467666,145.511043,145.534116,145.563348,145.677777,144.613395,144.611137,144.608605,144.603533,144.427844,144.395664,145.223094,145.221460,145.219590,145.215876,145.096490,144.982699,145.239556
45,149.323675,145.687061,145.734276,145.759258,145.790698,145.911894,144.803669,144.801371,144.798776,144.793661,144.614250,144.571172,145.381367,145.379647,145.377823,145.374114,145.253032,145.141806,145.397488
46,149.514488,145.901104,145.952383,145.979355,146.013166,146.141478,144.990483,144.988130,144.985535,144.980217,144.797149,144.743379,145.537539,145.535851,145.533971,145.530204,145.407956,145.298326,145.552470
47,149.701247,146.109992,146.165495,146.194576,146.230880,146.366700,145.173956,145.171556,145.168880,145.163492,144.976688,144.912252,145.691685,145.689978,145.688043,145.684274,145.560818,145.452454,145.704726
48,149.883990,146.313695,146.373753,146.405074,146.443978,146.587737,145.354224,145.351772,145.349050,145.343561,145.152975,145.078009,145.843826,145.842087,145.840165,145.836329,145.711592,145.604051,145.854325
49,150.063004,146.513952,146.578804,146.612478,146.654153,146.806341,145.531376,145.528881,145.526080,145.520522,145.326097,145.240652,145.993962,145.992220,145.990286,145.986399,145.860324,145.753316,146.001410
50,150.238417,146.709878,146.779770,146.815918,146.860498,147.021657,145.705529,145.702984,145.700156,145.694447,145.496219,145.400400,146.142171,146.140413,146.138454,146.134534,146.007053,145.900022,146.145949
51,150.410355,146.901171,146.976370,147.015142,147.062807,147.233320,145.876797,145.874209,145.871306,145.865507,145.663404,145.557296,146.288471,146.286695,146.284715,146.280760,146.151835,146.044558,146.288168
52,150.578967,147.087948,147.168735,147.210215,147.261042,147.441518,146.045247,146.042612,146.039669,146.033753,145.827792,145.711482,146.432894,146.431099,146.429095,146.425106,146.294691,146.186881,146.428107
53,150.744347,147.270256,147.356895,147.401336,147.455472,147.646389,146.211000,146.208308,146.205321,146.199289,145.989394,145.863013,146.575472,146.573665,146.571646,146.567598,146.435656,146.327138,146.565802
54,150.906648,147.448223,147.540996,147.588392,147.646067,147.847908,146.374127,146.371400,146.368339,146.362211,146.148379,146.011986,146.716256,146.714424,146.712391,146.708287,146.574773,146.465476,146.701359
55,151.065995,147.621942,147.721154,147.771680,147.833054,148.046333,146.534721,146.531941,146.528838,146.522595,146.304811,146.158498,146.855267,146.853420,146.851353,146.847211,146.712089,146.601287,146.835122
56,151.222406,147.791373,147.897352,147.951205,148.016394,148.241732,146.692873,146.690047,146.686877,146.680521,146.458772,146.303325,146.992558,146.990682,146.988590,146.984406,146.847623,146.735404,146.966310
57,151.376160,147.956809,148.069725,148.127042,148.196253,148.434162,146.848628,146.845761,146.842549,146.836075,146.610330,146.446475,147.128133,147.126236,147.124129,147.119890,146.981422,146.867560,147.095929
58,151.527125,148.118027,148.238391,148.299269,148.372663,148.623748,147.002090,146.999173,146.995901,146.989317,146.759569,146.587329,147.262051,147.260120,147.257991,147.253710,147.113531,146.997858,147.223489
59,151.675562,148.275300,148.403304,148.467957,148.545630,148.810572,147.153332,147.150355,147.147047,147.140333,146.906557,146.725968,147.394326,147.392386,147.390229,147.385892,147.243961,147.126424,147.349690
60,151.821517,148.428637,148.564678,148.633196,148.715381,148.994717,147.302391,147.299360,147.295980,147.289192,147.051377,146.862451,147.525010,147.523046,147.520855,147.516474,147.372770,147.253171,147.474243
61,151.965048,148.578238,148.722510,148.795135,148.882192,149.176495,147.449351,147.446279,147.442842,147.435925,147.194062,146.996849,147.654117,147.652132,147.649925,147.645488,147.499980,147.378170,147.597029
62,152.106238,148.724163,148.877049,148.953938,149.045828,149.355885,147.594270,147.591147,147.587660,147.580635,147.334719,147.129210,147.781709,147.779703,147.777456,147.772957,147.625655,147.501532,147.717910
63,152.245177,148.866306,149.028168,149.109429,149.206372,149.532867,147.737224,147.734046,147.730506,147.723358,147.473355,147.259620,147.907782,147.905741,147.903527,147.898932,147.749752,147.623226,147.837203
64,152.381929,149.004708,149.175841,149.261688,149.363948,149.707469,147.878240,147.875022,147.871417,147.864178,147.610068,147.388107,148.032382,148.030323,148.028055,148.023431,147.872378,147.743342,147.955002
65,152.516623,149.139490,149.320145,149.410768,149.518517,149.879741,148.017396,148.014124,148.010460,148.003095,147.744902,147.514743,148.155548,148.153465,148.151162,148.146477,147.993530,147.861898,148.071294
66,152.649149,149.270468,149.461126,149.556605,149.670021,150.049755,148.154739,148.151410,148.147693,148.140213,147.877907,147.639575,148.277298,148.275192,148.272875,148.268122,148.113263,147.978941,148.185978
67,152.779730,149.397897,149.598893,149.699356,149.818639,150.217568,148.290320,148.286943,148.283167,148.275562,148.009127,147.762646,148.397670,148.395553,148.393146,148.388387,148.231572,148.094480,148.299373
68,152.908428,149.521818,149.733278,149.839076,149.964372,150.383246,148.424175,148.420749,148.416919,148.409205,148.138630,147.884021,148.516674,148.514507,148.512110,148.507281,148.348526,148.208618,148.411145
69,153.035165,149.642096,149.864501,149.975717,150.107273,150.546811,148.556359,148.552880,148.549000,148.541168,148.266439,148.003714,148.634376,148.632142,148.629736,148.624860,148.464133,148.321315,148.521521
70,153.160115,149.758929,149.992536,150.109309,150.247343,150.708324,148.686926,148.683398,148.679454,148.671515,148.392623,148.121805,148.750749,148.748529,148.746065,148.741116,148.578400,148.432635,148.630589
71,153.283291,149.872305,150.117487,150.240012,150.384687,150.867832,148.815916,148.812324,148.808320,148.800264,148.517217,148.238326,148.865871,148.863626,148.861147,148.856106,148.691384,148.542620,148.738448
72,153.404745,149.982266,150.239368,150.367705,150.519178,151.025426,148.943345,148.939724,148.935656,148.927482,148.640249,148.353339,148.979715,148.977447,148.974925,148.969858,148.803106,148.651284,148.844853
73,153.524534,150.088863,150.358018,150.492516,150.651062,151.181037,149.069287,149.065612,149.061494,149.053202,148.761787,148.466811,149.092364,149.090054,149.087500,149.082379,148.913593,148.758661,148.949996
74,153.642682,150.192105,150.473774,150.614487,150.780275,151.334790,149.193762,149.190035,149.185863,149.177451,148.881844,148.578843,149.203791,149.201471,149.198886,149.193694,149.022858,148.864786,149.053975
75,153.759262,150.292072,150.586488,150.733562,150.906756,151.486712,149.316813,149.313039,149.308806,149.300284,149.000462,148.689456,149.314057,149.311685,149.309127,149.303844,149.130938,148.969684,149.156990
76,153.874281,150.439779,150.696228,150.849846,151.030652,151.636900,149.438487,149.434659,149.430361,149.421718,149.117686,148.798684,149.423176,149.420832,149.418147,149.412842,149.237874,149.073369,149.258363
77,153.987804,150.601986,150.803046,150.963349,151.151967,151.785175,149.558792,149.554914,149.550569,149.541810,149.233541,148.906488,149.531187,149.528762,149.526073,149.520707,149.343631,149.175882,149.358833
78,154.099881,150.789041,150.904630,151.071715,151.268218,151.928958,149.677786,149.673851,149.669441,149.660575,149.348076,149.013097,149.638037,149.635609,149.632929,149.627458,149.448302,149.277254,149.458114
79,154.210476,150.974577,151.003053,151.177049,151.381492,152.070679,149.795490,149.791502,149.787031,149.778044,149.461303,149.118395,149.743828,149.741376,149.738652,149.733136,149.551835,149.377496,149.556341
80,154.319738,151.158976,151.098638,151.279635,151.492211,152.210579,149.911929,149.907892,149.903364,149.894264,149.573270,149.222392,149.848569,149.846084,149.843310,149.837753,149.654355,149.477400,149.653479
81,154.427617,151.342139,151.215117,151.379525,151.600400,152.348755,150.027133,150.023050,150.018470,150.009242,149.683988,149.325200,149.952272,149.949754,149.946968,149.941326,149.755774,149.576400,149.749549
82,154.534141,151.524074,151.356087,151.476746,151.706066,152.485246,150.141159,150.137023,150.132382,150.123035,149.793513,149.426748,150.054928,150.052379,150.049539,150.043868,149.856180,149.674323,149.844656
83,154.639479,151.704982,151.523387,151.571235,151.809225,152.620046,150.253997,150.249811,150.245114,150.235654,149.901853,149.527200,150.156577,150.154023,150.151155,150.145423,149.955557,149.771178,149.938661
84,154.743449,151.884582,151.700341,151.671203,151.909874,152.753221,150.365701,150.361468,150.356707,150.347130,150.009048,149.626408,150.257304,150.254671,150.251778,150.245895,150.053933,149.867005,150.031741
85,154.846234,152.063095,151.876264,151.809045,152.008097,152.884756,150.476278,150.472003,150.467180,150.457482,150.115122,149.724555,150.356997,150.354369,150.351444,150.345561,150.151389,149.961817,150.123837
86,154.947822,152.240474,152.051032,151.958234,152.103862,153.014715,150.585778,150.581438,150.576571,150.566759,150.220084,149.821613,150.455772,150.453111,150.450156,150.444214,150.247799,150.055635,150.215009
87,155.048324,152.416839,152.224805,152.130510,152.197251,153.143098,150.694203,150.689814,150.684881,150.674943,150.323954,149.917532,150.553620,150.550960,150.547946,150.541948,150.343342,150.148475,150.305209
88,155.147451,152.591757,152.397580,152.301963,152.288267,153.269993,150.801577,150.797146,150.792148,150.782094,150.426787,150.012461,150.650545,150.647881,150.644808,150.638756,150.437942,150.240351,150.394538
89,155.245658,152.765828,152.569354,152.472304,152.399759,153.395254,150.907964,150.903450,150.898408,150.888231,150.528598,150.106341,150.746627,150.743871,150.740868,150.734651,150.531633,150.331312,150.482962
90,155.342678,152.938648,152.740126,152.641703,152.532325,153.519082,151.013309,151.008769,151.003662,150.993366,150.629404,150.199214,150.841746,150.838981,150.835890,150.829696,150.624474,150.421358,150.570490
91,155.438608,153.110318,152.909958,152.810283,152.683753,153.641448,151.117692,151.113095,151.107932,151.097526,150.729200,150.291098,150.936038,150.933269,150.930128,150.923881,150.716393,150.510496,150.657189
92,155.533466,153.273267,153.070864,152.969543,152.840371,153.752237,151.221183,151.216894,151.212091,151.202364,150.828054,150.382016,151.029498,151.026683,151.023514,151.017200,150.807480,150.598766,150.743024
