9400MHz / Lb(0.95) dB
,h2(m),1000,1000,1000,1000,1000,10000,10000,10000,10000,10000,10000,20000,20000,20000,20000,20000,20000,20000
,h1(m),1.5,15,30,60,1000,1.5,15,30,60,1000,10000,1.5,15,30,60,1000,10000,20000
D (km),FSL
0,111.9,119.5,119.4,119.3,119,0,139.6,139.6,139.6,139.5,138.6,0,145.6,145.6,145.6,145.6,145.1,139.5,0
1,114.9,123.6,123.4,123.3,122.9,115.2,139.6,139.6,139.6,139.5,137.3,112.4,145.6,145.6,145.6,145.5,144.4,134.2,112.2
2,118.9,128.5,128.4,128.4,128.2,124.2,139.8,139.8,139.8,139.7,137.5,118.6,145.7,145.7,145.6,145.6,144.5,134.3,118.4
3,121.9,131.8,131.8,131.8,131.7,129.5,140.1,140.1,140.1,140,137.9,122.4,145.7,145.7,145.7,145.7,144.6,134.6,122
4,124.2,134.3,134.3,134.3,134.2,132.9,140.5,140.5,140.5,140.4,138.4,125.3,145.9,145.8,145.8,145.8,144.7,135,124.6
5,126.1,136.3,136.3,136.3,136.2,135.3,141,141,140.9,140.9,139,127.5,146,146,146,145.9,144.8,135.4,126.8
6,127.6,137.9,137.9,137.9,137.9,137.3,141.5,141.5,141.4,141.4,139.6,129.5,146.2,146.1,146.1,146.1,145,135.9,128.5
7,128.9,139.3,139.3,139.3,139.3,138.8,142,142,142,141.9,140.3,131.1,146.3,146.3,146.3,146.3,145.2,136.4,130
8,130,140.5,140.5,140.5,140.5,140,142.6,142.6,142.5,142.5,141,132.7,146.5,146.5,146.5,146.5,145.5,136.9,131.3
9,131.1,141.5,141.5,141.5,141.5,141.2,143.1,143.1,143.1,143.1,141.8,134,146.8,146.8,146.7,146.7,145.7,137.5,132.5
10,132,142.5,142.5,142.5,142.5,142.2,143.7,143.7,143.7,143.6,142.5,135.3,147,147,147,147,146,138.1,133.6
11,132.8,143.4,143.3,143.3,143.3,143.1,144.3,144.3,144.2,144.2,143.1,136.4,147.3,147.3,147.2,147.2,146.3,138.8,134.6
12,133.5,144.1,144.1,144.1,144.1,143.9,144.8,144.8,144.8,144.8,143.8,137.5,147.5,147.5,147.5,147.5,146.6,139.4,135.5
13,134.2,144.9,144.9,144.9,144.8,144.6,145.4,145.3,145.3,145.3,144.4,138.6,147.8,147.8,147.8,147.7,146.9,139.9,136.4
14,134.9,145.5,145.5,145.5,145.5,145.3,145.9,145.9,145.9,145.8,145,139.5,148.1,148.1,148,148,147.2,140.6,137.2
15,135.5,146.2,146.2,146.2,146.1,146,146.4,146.4,146.4,146.3,145.6,140.4,148.3,148.3,148.3,148.3,147.5,141.2,138
16,136,146.7,146.7,146.7,146.7,146.6,146.9,146.9,146.8,146.8,146.1,141.3,148.6,148.6,148.6,148.6,147.9,141.8,138.7
17,136.5,147.3,147.3,147.3,147.3,147.1,147.3,147.3,147.3,147.3,146.6,142.1,148.9,148.9,148.9,148.9,148.2,142.3,139.4
18,137,147.8,147.8,147.8,147.8,147.7,147.8,147.8,147.8,147.8,147.1,142.9,149.2,149.2,149.2,149.2,148.5,142.9,140.1
19,137.5,148.3,148.3,148.3,148.3,148.2,148.2,148.2,148.2,148.2,147.6,143.6,149.5,149.5,149.5,149.4,148.8,143.4,140.8
20,137.9,148.8,148.8,148.8,148.8,148.6,148.7,148.6,148.6,148.6,148.1,144.3,149.8,149.8,149.8,149.7,149.1,144,141.4
21,138.4,149.2,149.2,149.2,149.2,149.1,149,149,149,149,148.5,144.9,150.1,150,150,150,149.4,144.5,142
22,138.8,149.7,149.7,149.7,149.6,149.5,149.4,149.4,149.4,149.4,148.9,145.6,150.3,150.3,150.3,150.3,149.8,145,142.5
23,139.2,150.1,150.1,150.1,150.1,149.9,149.8,149.8,149.8,149.8,149.3,146.2,150.6,150.6,150.6,150.6,150.1,145.6,143.1
24,139.5,150.5,150.5,150.5,150.4,150.3,150.1,150.1,150.1,150.1,149.7,146.7,150.9,150.9,150.9,150.9,150.4,146,143.7
25,139.9,150.8,150.8,150.8,150.8,150.7,150.5,150.5,150.4,150.4,150.1,147.3,151.2,151.2,151.1,151.1,150.6,146.5,144.2
26,140.2,151.2,151.2,151.2,151.2,151.1,150.8,150.8,150.8,150.8,150.5,147.8,151.4,151.4,151.4,151.4,150.9,147,144.7
27,140.5,151.5,151.5,151.5,151.5,151.4,151.1,151.1,151.1,151.1,150.8,148.3,151.7,151.7,151.7,151.7,151.2,147.4,145.2
28,140.9,151.9,151.9,151.9,151.9,151.7,151.4,151.4,151.4,151.4,151.1,148.7,152,151.9,151.9,151.9,151.5,147.8,145.6
29,141.2,152.2,152.2,152.2,152.2,152.1,151.7,151.7,151.7,151.7,151.4,149.2,152.2,152.2,152.2,152.2,151.8,148.3,146.1
30,141.5,152.5,152.5,152.5,152.5,152.4,152,152,152,152,151.7,149.6,152.5,152.5,152.4,152.4,152,148.7,146.6
31,141.7,152.8,152.8,152.8,152.8,152.7,152.3,152.3,152.3,152.3,152,150,152.7,152.7,152.7,152.7,152.3,149.1,147
32,142,153.1,153.1,153.1,153.1,153,152.6,152.6,152.5,152.5,152.3,150.3,152.9,152.9,152.9,152.9,152.5,149.5,147.4
33,142.3,153.4,153.4,153.4,153.4,153.3,152.8,152.8,152.8,152.8,152.6,150.7,153.2,153.2,153.2,153.2,152.8,149.8,147.9
34,142.5,153.7,153.7,153.7,153.7,153.6,153.1,153.1,153.1,153.1,152.8,151.1,153.4,153.4,153.4,153.4,153,150.2,148.3
35,142.8,154,154,154,153.9,153.9,153.3,153.3,153.3,153.3,153.1,151.4,153.6,153.6,153.6,153.6,153.3,150.6,148.7
36,143,154.2,154.2,154.2,154.2,154.1,153.6,153.6,153.6,153.6,153.4,151.7,153.9,153.9,153.9,153.8,153.5,150.9,149
37,143.3,154.5,154.5,154.5,154.5,154.4,153.8,153.8,153.8,153.8,153.6,152,154.1,154.1,154.1,154.1,153.7,151.2,149.4
38,143.5,154.8,154.8,154.8,154.7,154.7,154.1,154.1,154.1,154,153.8,152.3,154.3,154.3,154.3,154.3,154,151.5,149.8
39,143.7,155,155,155,155,154.9,154.3,154.3,154.3,154.3,154.1,152.6,154.5,154.5,154.5,154.5,154.2,151.9,150.1
40,144,155.3,155.3,155.3,155.3,155.2,154.5,154.5,154.5,154.5,154.3,152.9,154.7,154.7,154.7,154.7,154.4,152.2,150.4
41,144.2,155.5,155.5,155.5,155.5,155.4,154.7,154.7,154.7,154.7,154.5,153.2,154.9,154.9,154.9,154.9,154.6,152.5,150.8
42,144.4,155.7,155.7,155.7,155.7,155.7,154.9,154.9,154.9,154.9,154.7,153.5,155.1,155.1,155.1,155.1,154.8,152.7,151.1
43,144.6,156,156,156,156,155.9,155.2,155.2,155.2,155.1,155,153.7,155.3,155.3,155.3,155.3,155,153,151.4
44,144.8,156.2,156.2,156.2,156.2,156.1,155.4,155.4,155.4,155.4,155.2,154,155.5,155.5,155.5,155.5,155.2,153.3,151.7
45,145,156.4,156.4,156.4,156.4,156.3,155.6,155.6,155.6,155.6,155.4,154.2,155.7,155.6,155.6,155.6,155.4,153.5,152
46,145.2,156.6,156.6,156.6,156.6,156.6,155.8,155.8,155.8,155.8,155.6,154.4,155.8,155.8,155.8,155.8,155.6,153.8,152.3
47,145.4,156.8,156.8,156.8,156.8,156.8,156,156,156,155.9,155.8,154.7,156,156,156,156,155.8,154,152.6
48,145.5,157,157,157,157,157,156.1,156.1,156.1,156.1,156,154.9,156.2,156.2,156.2,156.2,156,154.2,152.9
49,145.7,157.2,157.2,157.2,157.2,157.2,156.3,156.3,156.3,156.3,156.1,155.1,156.3,156.3,156.3,156.3,156.1,154.5,153.2
50,145.9,157.4,157.4,157.4,157.4,157.4,156.5,156.5,156.5,156.5,156.3,155.3,156.5,156.5,156.5,156.5,156.3,154.7,153.4
51,146.1,157.6,157.6,157.6,157.6,157.6,156.7,156.7,156.7,156.7,156.5,155.5,156.7,156.7,156.7,156.7,156.5,154.9,153.7
52,146.2,157.8,157.8,157.8,157.8,157.8,156.9,156.9,156.9,156.9,156.7,155.8,156.8,156.8,156.8,156.8,156.7,155.1,153.9
53,146.4,158,158,158,158,158,157,157,157,157,156.9,156,157,157,157,157,156.8,155.3,154.2
54,146.6,158.2,158.2,158.2,158.2,158.2,157.2,157.2,157.2,157.2,157,156.2,157.2,157.2,157.2,157.2,157,155.5,154.4
55,146.7,158.4,158.4,158.4,158.4,158.4,157.4,157.4,157.4,157.4,157.2,156.3,157.3,157.3,157.3,157.3,157.1,155.7,154.6
56,146.9,158.6,158.6,158.6,158.5,158.5,157.5,157.5,157.5,157.5,157.4,156.5,157.5,157.5,157.5,157.5,157.3,155.9,154.9
57,147,158.7,158.7,158.7,158.7,158.7,157.7,157.7,157.7,157.7,157.5,156.7,157.6,157.6,157.6,157.6,157.4,156.1,155.1
58,147.2,158.9,158.9,158.9,158.9,158.9,157.9,157.9,157.9,157.9,157.7,156.9,157.8,157.8,157.8,157.8,157.6,156.3,155.3
59,147.3,159.1,159.1,159.1,159.1,159.1,158,158,158,158,157.8,157,157.9,157.9,157.9,157.9,157.7,156.5,155.5
60,147.5,159.3,159.2,159.2,159.2,159.2,158.2,158.2,158.2,158.2,158,157.2,158.1,158.1,158.1,158,157.9,156.7,155.7
61,147.6,159.4,159.4,159.4,159.4,159.4,158.3,158.3,158.3,158.3,158.1,157.4,158.2,158.2,158.2,158.2,158,156.9,155.9
62,147.8,159.6,159.6,159.6,159.6,159.5,158.5,158.5,158.5,158.5,158.3,157.5,158.3,158.3,158.3,158.3,158.2,157,156.1
63,147.9,159.7,159.7,159.7,159.7,159.7,158.6,158.6,158.6,158.6,158.4,157.7,158.5,158.5,158.5,158.5,158.3,157.2,156.3
64,148,159.9,159.9,159.9,159.9,159.9,158.8,158.8,158.8,158.8,158.6,157.8,158.6,158.6,158.6,158.6,158.4,157.4,156.5
65,148.2,160.1,160.1,160,160,160,158.9,158.9,158.9,158.9,158.7,158,158.7,158.7,158.7,158.7,158.6,157.5,156.7
66,148.3,160.2,160.2,160.2,160.2,160.2,159,159,159,159,158.9,158.1,158.9,158.9,158.9,158.9,158.7,157.7,156.8
67,148.4,160.4,160.4,160.3,160.3,160.3,159.2,159.2,159.2,159.2,159,158.3,159,159,159,159,158.9,157.9,157
68,148.6,160.5,160.5,160.5,160.5,160.5,159.3,159.3,159.3,159.3,159.1,158.4,159.1,159.1,159.1,159.1,159,158,157.2
69,148.7,160.7,160.7,160.6,160.6,160.6,159.5,159.5,159.5,159.4,159.3,158.5,159.3,159.3,159.3,159.3,159.1,158.2,157.4
70,148.8,160.8,160.8,160.8,160.8,160.8,159.6,159.6,159.6,159.6,159.4,158.7,159.4,159.4,159.4,159.4,159.2,158.3,157.5
71,148.9,161,161,160.9,160.9,160.9,159.7,159.7,159.7,159.7,159.5,158.8,159.5,159.5,159.5,159.5,159.4,158.5,157.7
72,149.1,161.1,161.1,161.1,161.1,161.1,159.8,159.8,159.8,159.8,159.7,158.9,159.6,159.6,159.6,159.6,159.5,158.6,157.8
73,149.2,161.3,161.2,161.2,161.2,161.2,160,160,160,160,159.8,159.1,159.8,159.8,159.8,159.8,159.6,158.8,158
74,149.3,161.4,161.4,161.4,161.3,161.3,160.1,160.1,160.1,160.1,159.9,159.2,159.9,159.9,159.9,159.9,159.7,158.9,158.2
75,149.4,161.5,161.5,161.5,161.5,161.5,160.2,160.2,160.2,160.2,160,159.3,160,160,160,160,159.8,159,158.3
76,149.5,161.7,161.7,161.6,161.6,161.6,160.3,160.3,160.3,160.3,160.2,159.4,160.1,160.1,160.1,160.1,160,159.2,158.5
77,149.6,161.8,161.8,161.8,161.7,161.8,160.5,160.5,160.5,160.5,160.3,159.6,160.2,160.2,160.2,160.2,160.1,159.3,158.6
78,149.8,162,161.9,161.9,161.9,161.9,160.6,160.6,160.6,160.6,160.4,159.7,160.4,160.3,160.3,160.3,160.2,159.4,158.7
79,149.9,162.2,162.1,162,162,162,160.7,160.7,160.7,160.7,160.5,159.8,160.5,160.5,160.5,160.5,160.3,159.6,158.9
80,150,162.4,162.2,162.2,162.1,162.1,160.8,160.8,160.8,160.8,160.6,159.9,160.6,160.6,160.6,160.6,160.4,159.7,159
81,150.1,162.6,162.3,162.3,162.3,162.3,160.9,160.9,160.9,160.9,160.8,160,160.7,160.7,160.7,160.7,160.5,159.8,159.2
82,150.2,162.9,162.5,162.4,162.4,162.4,161.1,161.1,161,161,160.9,160.2,160.8,160.8,160.8,160.8,160.6,159.9,159.3
83,150.3,163.1,162.6,162.6,162.5,162.5,161.2,161.2,161.2,161.2,161,160.3,160.9,160.9,160.9,160.9,160.8,160.1,159.4
84,150.4,163.3,162.8,162.7,162.6,162.7,161.3,161.3,161.3,161.3,161.1,160.4,161,161,161,161,160.9,160.2,159.6
85,150.5,163.5,163,162.8,162.8,162.8,161.4,161.4,161.4,161.4,161.2,160.5,161.1,161.1,161.1,161.1,161,160.3,159.7
86,150.6,163.7,163.2,162.9,162.9,162.9,161.5,161.5,161.5,161.5,161.3,160.6,161.2,161.2,161.2,161.2,161.1,160.4,159.8
87,150.7,163.9,163.4,163.1,163,163,161.6,161.6,161.6,161.6,161.4,160.7,161.3,161.3,161.3,161.3,161.2,160.5,160
88,150.8,164.1,163.6,163.3,163.1,163.2,161.7,161.7,161.7,161.7,161.5,160.8,161.4,161.4,161.4,161.4,161.3,160.6,160.1
89,150.9,164.4,163.8,163.5,163.3,163.3,161.8,161.8,161.8,161.8,161.6,160.9,161.5,161.5,161.5,161.5,161.4,160.7,160.2
90,151,164.6,164,163.7,163.4,163.4,161.9,161.9,161.9,161.9,161.7,161,161.6,161.6,161.6,161.6,161.5,160.8,160.3
91,151.1,164.8,164.2,163.9,163.5,163.5,162,162,162,162,161.8,161.1,161.7,161.7,161.7,161.7,161.6,160.9,160.4
92,151.2,165,164.4,164.1,163.6,163.6,162.1,162.1,162.1,162.1,161.9,161.2,161.8,161.8,161.8,161.8,161.7,161,160.6
93,151.3,165.2,164.6,164.3,163.8,163.7,162.2,162.2,162.2,162.2,162,161.3,161.9,161.9,161.9,161.9,161.8,161.1,160.7
94,151.4,165.4,164.8,164.4,164,163.9,162.3,162.3,162.3,162.3,162.1,161.4,162,162,162,162,161.9,161.2,160.8
95,151.5,165.6,165,164.6,164.2,164,162.4,162.4,162.4,162.4,162.2,161.5,162.1,162.1,162.1,162.1,162,161.3,160.9
96,151.6,165.8,165.2,164.8,164.4,164.1,162.5,162.5,162.5,162.5,162.3,161.6,162.2,162.2,162.2,162.2,162.1,161.4,161
97,151.6,166,165.4,165,164.6,164.2,162.6,162.6,162.6,162.6,162.4,161.7,162.3,162.3,162.3,162.3,162.2,161.5,161.1
98,151.7,166.1,165.6,165.2,164.8,164.3,162.7,162.7,162.7,162.7,162.5,161.8,162.4,162.4,162.4,162.4,162.2,161.6,161.2
99,151.8,166.3,165.8,165.4,165,164.4,162.8,162.8,162.8,162.8,162.6,161.9,162.5,162.5,162.5,162.5,162.3,161.7,161.3
100,151.9,166.4,166,165.6,165.1,164.6,162.9,162.9,162.9,162.9,162.7,162,162.6,162.6,162.6,162.6,162.4,161.8,161.4
101,152,166.5,166.2,165.8,165.3,164.7,163,163,163,163,162.8,162.1,162.7,162.7,162.7,162.7,162.5,161.9,161.6
102,152.1,166.6,166.4,166,165.5,164.8,163.1,163.1,163.1,163.1,162.9,162.2,162.8,162.8,162.8,162.7,162.6,162,161.7
103,152.2,166.7,166.6,166.2,165.7,164.9,163.2,163.2,163.2,163.2,162.9,162.3,162.8,162.8,162.8,162.8,162.7,162.1,161.8
104,152.3,166.9,166.8,166.4,165.9,165,163.3,163.3,163.3,163.3,163,162.4,162.9,162.9,162.9,162.9,162.8,162.2,161.9
105,152.3,167,167,166.6,166.1,165.1,163.4,163.4,163.4,163.4,163.1,162.4,163,163,163,163,162.9,162.3,162
106,152.4,167.2,167.2,166.8,166.3,165.2,163.5,163.5,163.5,163.5,163.2,162.5,163.1,163.1,163.1,163.1,163,162.4,162.1
107,152.5,167.3,167.4,167,166.4,165.3,163.6,163.6,163.5,163.5,163.3,162.6,163.2,163.2,163.2,163.2,163,162.5,162.2
108,152.6,167.5,167.6,167.2,166.6,165.4,163.6,163.6,163.6,163.6,163.4,162.7,163.3,163.3,163.3,163.3,163.1,162.5,162.2
109,152.7,167.8,167.8,167.4,166.8,165.6,163.7,163.7,163.7,163.7,163.5,162.8,163.4,163.4,163.4,163.4,163.2,162.6,162.3
110,152.7,168.1,168,167.6,167,165.7,163.8,163.8,163.8,163.8,163.6,162.9,163.4,163.4,163.4,163.4,163.3,162.7,162.4
111,152.8,168.4,168.2,167.8,167.2,165.8,163.9,163.9,163.9,163.9,163.6,163,163.5,163.5,163.5,163.5,163.4,162.8,162.5
112,152.9,168.6,168.4,168,167.4,165.9,164,164,164,164,163.7,163,163.6,163.6,163.6,163.6,163.5,162.9,162.6
113,153,168.9,168.6,168.2,167.6,166,164.1,164.1,164.1,164.1,163.8,163.1,163.7,163.7,163.7,163.7,163.5,163,162.7
114,153.1,169.2,168.9,168.4,167.8,166.1,164.2,164.2,164.2,164.1,163.9,163.2,163.8,163.8,163.8,163.8,163.6,163,162.8
115,153.1,169.5,169.1,168.6,168,166.3,164.2,164.2,164.2,164.2,164,163.3,163.9,163.8,163.8,163.8,163.7,163.1,162.9
116,153.2,169.8,169.3,168.8,168.2,166.4,164.3,164.3,164.3,164.3,164,163.4,163.9,163.9,163.9,163.9,163.8,163.2,162.9
117,153.3,170.1,169.5,169,168.4,166.5,164.4,164.4,164.4,164.4,164.1,163.4,164,164,164,164,163.9,163.3,163
118,153.4,170.4,169.7,169.3,168.7,166.6,164.5,164.5,164.5,164.5,164.2,163.5,164.1,164.1,164.1,164.1,163.9,163.4,163.1
119,153.4,170.7,170,169.5,168.9,166.6,164.6,164.6,164.6,164.6,164.3,163.6,164.2,164.2,164.2,164.2,164,163.4,163.2
120,153.5,171,170.2,169.7,169.1,166.7,164.7,164.6,164.6,164.6,164.4,163.7,164.2,164.2,164.2,164.2,164.1,163.5,163.3
121,153.6,171.4,170.4,169.9,169.3,166.8,164.7,164.7,164.7,164.7,164.4,163.7,164.3,164.3,164.3,164.3,164.2,163.6,163.3
122,153.6,171.6,170.6,170.1,169.5,166.9,164.8,164.8,164.8,164.8,164.5,163.8,164.4,164.4,164.4,164.4,164.2,163.7,163.4
123,153.7,172.7,170.8,170.3,169.6,167,164.9,164.9,164.9,164.9,164.6,163.9,164.5,164.5,164.5,164.5,164.3,163.8,163.5
124,153.8,173.8,171,170.5,169.8,167.1,165,165,165,164.9,164.7,164,164.5,164.5,164.5,164.5,164.4,163.8,163.6
125,153.9,174.9,171.3,170.7,170,167.2,165,165,165,165,164.7,164,164.6,164.6,164.6,164.6,164.5,163.9,163.7
126,153.9,175.9,171.5,170.9,170.2,167.3,165.1,165.1,165.1,165.1,164.8,164.1,164.7,164.7,164.7,164.7,164.5,164,163.7
127,154,176.9,171.7,171.1,170.4,167.4,165.2,165.2,165.2,165.2,164.9,164.2,164.8,164.8,164.8,164.8,164.6,164.1,163.8
128,154.1,178,171.9,171.3,170.6,167.4,165.3,165.3,165.3,165.3,165,164.3,164.8,164.8,164.8,164.8,164.7,164.1,163.9
129,154.1,179.1,172.1,171.5,170.8,167.5,165.3,165.3,165.3,165.3,165,164.3,164.9,164.9,164.9,164.9,164.7,164.2,164
130,154.2,180.2,172.3,171.7,171,167.6,165.4,165.4,165.4,165.4,165.1,164.4,165,165,165,165,164.8,164.3,164
131,154.3,181.3,172.5,171.9,171.2,167.7,165.5,165.5,165.5,165.5,165.2,164.5,165,165,165,165,164.9,164.3,164.1
132,154.3,182.4,172.7,172.1,171.4,167.8,165.6,165.6,165.6,165.6,165.2,164.5,165.1,165.1,165.1,165.1,165,164.4,164.2
133,154.4,183.5,172.9,172.3,171.6,167.9,165.6,165.6,165.6,165.6,165.3,164.6,165.2,165.2,165.2,165.2,165,164.5,164.2
134,154.5,184.5,173.1,172.5,171.7,168,165.7,165.7,165.7,165.7,165.4,164.7,165.3,165.3,165.3,165.2,165.1,164.5,164.3
135,154.5,185.6,173.3,172.7,171.9,168,165.8,165.8,165.8,165.8,165.5,164.7,165.3,165.3,165.3,165.3,165.2,164.6,164.4
136,154.6,187.3,173.5,172.9,172.1,168.1,165.9,165.9,165.9,165.8,165.5,164.8,165.4,165.4,165.4,165.4,165.2,164.7,164.5
137,154.6,189.3,173.7,173.1,172.3,168.2,165.9,165.9,165.9,165.9,165.6,164.9,165.5,165.5,165.5,165.5,165.3,164.7,164.5
138,154.7,191.4,173.9,173.3,172.5,168.3,166,166,166,166,165.7,164.9,165.5,165.5,165.5,165.5,165.4,164.8,164.6
139,154.8,193.4,174.1,173.5,172.7,168.4,166.1,166.1,166.1,166.1,165.7,165,165.6,165.6,165.6,165.6,165.4,164.9,164.7
140,154.8,195.4,174.3,173.7,172.9,168.5,166.1,166.1,166.1,166.1,165.8,165.1,165.7,165.7,165.7,165.7,165.5,164.9,164.7
141,154.9,197.4,174.5,173.9,173,168.5,166.2,166.2,166.2,166.2,165.9,165.1,165.7,165.7,165.7,165.7,165.6,165,164.8
142,155,199.5,174.8,174.1,173.2,168.7,166.3,166.3,166.3,166.3,165.9,165.2,165.8,165.8,165.8,165.8,165.6,165.1,164.9
143,155,201.5,176.5,174.3,173.4,168.8,166.4,166.3,166.3,166.3,166,165.3,165.9,165.9,165.9,165.9,165.7,165.1,164.9
144,155.1,203.5,178.1,174.4,173.6,168.9,166.4,166.4,166.4,166.4,166.1,165.3,165.9,165.9,165.9,165.9,165.8,165.2,165
145,155.1,205.5,179.8,174.6,173.8,169,166.5,166.5,166.5,166.5,166.1,165.4,166,166,166,166,165.8,165.3,165.1
146,155.2,207.6,181.5,174.8,174,169.2,166.6,166.6,166.5,166.5,166.2,165.4,166.1,166.1,166,166,165.9,165.3,165.1
147,155.3,209.6,183.4,175,174.1,169.3,166.6,166.6,166.6,166.6,166.3,165.5,166.1,166.1,166.1,166.1,165.9,165.4,165.2
148,155.3,211.6,185.4,175.2,174.3,169.4,166.7,166.7,166.7,166.7,166.3,165.6,166.2,166.2,166.2,166.2,166,165.5,165.3
149,155.4,213.6,187.5,175.4,174.5,169.5,166.8,166.8,166.7,166.7,166.4,165.6,166.2,166.2,166.2,166.2,166.1,165.5,165.3
150,155.4,215.6,189.5,176.8,174.7,169.7,166.8,166.8,166.8,166.8,166.4,165.7,166.3,166.3,166.3,166.3,166.1,165.6,165.4
151,155.5,216.8,191.5,178.6,174.9,169.8,166.9,166.9,166.9,166.9,166.5,165.7,166.4,166.4,166.4,166.4,166.2,165.6,165.4
152,155.6,217.4,193.5,180.4,175.1,169.9,167,166.9,166.9,166.9,166.6,165.8,166.4,166.4,166.4,166.4,166.2,165.7,165.5
153,155.6,217.9,195.6,182.2,175.2,170,167,167,167,167,166.6,165.9,166.5,166.5,166.5,166.5,166.3,165.8,165.6
154,155.7,218.5,197.6,184.3,175.4,170.2,167.1,167.1,167.1,167.1,166.7,165.9,166.6,166.5,166.5,166.5,166.4,165.8,165.6
155,155.7,219,199.6,186.3,175.6,170.3,167.1,167.1,167.1,167.1,166.8,166,166.6,166.6,166.6,166.6,166.4,165.9,165.7
156,155.8,219.5,201.6,188.3,175.8,170.4,167.2,167.2,167.2,167.2,166.8,166,166.7,166.7,166.7,166.7,166.5,165.9,165.8
157,155.8,220,203.6,190.3,176,170.5,167.3,167.3,167.3,167.3,166.9,166.1,166.7,166.7,166.7,166.7,166.5,166,165.8
158,155.9,220.5,205.7,192.3,176.1,170.7,167.3,167.3,167.3,167.3,166.9,166.2,166.8,166.8,166.8,166.8,166.6,166.1,165.9
159,155.9,220.9,207.7,194.4,176.3,170.8,167.4,167.4,167.4,167.4,167,166.2,166.9,166.8,166.8,166.8,166.7,166.1,165.9
160,156,221.4,209.5,196.4,177.6,170.9,167.5,167.5,167.5,167.4,167.1,166.3,166.9,166.9,166.9,166.9,166.7,166.2,166
161,156,221.8,210.4,198.4,179.6,171,167.5,167.5,167.5,167.5,167.1,166.3,167,167,167,167,166.8,166.2,166
162,156.1,222.2,211.3,200.4,181.5,171.2,167.6,167.6,167.6,167.6,167.2,166.4,167,167,167,167,166.8,166.3,166.1
163,156.2,222.7,212.1,202.4,183.5,171.3,167.6,167.6,167.6,167.6,167.2,166.4,167.1,167.1,167.1,167.1,166.9,166.3,166.2
164,156.2,223.1,212.9,204.4,185.5,171.4,167.7,167.7,167.7,167.7,167.3,166.5,167.1,167.1,167.1,167.1,166.9,166.4,166.2
165,156.3,223.5,213.6,206.5,187.6,171.5,167.8,167.8,167.8,167.7,167.3,166.5,167.2,167.2,167.2,167.2,167,166.5,166.3
166,156.3,223.9,214.3,208.5,189.6,171.7,167.8,167.8,167.8,167.8,167.4,166.6,167.3,167.3,167.3,167.2,167.1,166.5,166.3
167,156.4,224.2,215,209.6,191.6,171.8,167.9,167.9,167.9,167.9,167.5,166.6,167.3,167.3,167.3,167.3,167.1,166.6,166.4
168,156.4,224.6,215.6,210.5,193.6,171.9,168,167.9,167.9,167.9,167.5,166.7,167.4,167.4,167.4,167.4,167.2,166.6,166.4
169,156.5,225,216.3,211.4,195.6,172.1,168,168,168,168,167.6,166.8,167.4,167.4,167.4,167.4,167.2,166.7,166.5
170,156.5,225.3,216.9,212.2,197.7,172.2,168.1,168.1,168.1,168,167.6,166.8,167.5,167.5,167.5,167.5,167.3,166.7,166.6
171,156.6,225.7,217.5,213,199.7,172.3,168.1,168.1,168.1,168.1,167.7,166.9,167.5,167.5,167.5,167.5,167.3,166.8,166.6
172,156.6,226,218,213.7,201.7,172.4,168.2,168.2,168.2,168.2,167.7,166.9,167.6,167.6,167.6,167.6,167.4,166.8,166.7
173,156.7,226.3,218.6,214.5,203.7,172.6,168.2,168.2,168.2,168.2,167.8,167,167.6,167.6,167.6,167.6,167.4,166.9,166.7
