9400MHz / Lb(0.95) dB
,h2(m),1000,1000,1000,1000,1000,10000,10000,10000,10000,10000,10000,20000,20000,20000,20000,20000,20000,20000
,h1(m),1.5,15,30,60,1000,1.5,15,30,60,1000,10000,1.5,15,30,60,1000,10000,20000
D (km),FSL
0,-111.899518,-119.536973,-119.418471,-119.284887,-119.011420,0.000000,-139.583369,-139.571368,-139.558015,-139.531250,-138.649900,0.000000,-145.604621,-145.598490,-145.591673,-145.578026,-145.140122,-139.530390,0.000000
1,-114.916617,-123.610020,-123.446809,-123.265703,-122.904954,-115.239842,-139.643965,-139.612063,-139.576598,-139.505612,-137.271673,-112.360654,-145.619303,-145.603124,-145.585142,-145.549163,-144.411196,-134.188404,-112.242235
2,-118.899900,-128.513083,-128.437948,-128.354251,-128.188829,-124.180212,-139.828770,-139.797570,-139.762890,-139.693508,-137.503447,-118.597734,-145.666563,-145.650453,-145.632549,-145.596721,-144.464073,-134.346515,-118.395273
3,-121.911787,-131.847562,-131.816737,-131.782703,-131.715039,-129.499409,-140.124372,-140.094303,-140.060918,-139.994075,-137.873491,-122.445615,-145.744642,-145.728674,-145.710917,-145.675390,-144.552714,-134.612511,-122.016140
4,-124.216871,-134.330512,-134.310537,-134.288592,-134.244894,-132.879529,-140.513999,-140.485404,-140.453676,-140.390144,-138.378681,-125.255100,-145.852433,-145.836645,-145.819113,-145.784013,-144.675726,-134.966473,-124.635490
5,-126.062283,-136.295340,-136.281271,-136.265594,-136.234555,-135.345177,-140.978000,-140.951096,-140.921251,-140.861490,-138.977862,-127.532351,-145.988345,-145.972815,-145.955555,-145.921011,-144.831130,-135.392323,-126.752643
6,-127.594843,-137.915784,-137.904965,-137.893031,-137.869362,-137.258482,-141.488782,-141.465684,-141.440013,-141.387839,-139.638179,-129.461879,-146.150427,-146.135201,-146.118260,-146.084405,-145.016494,-135.873441,-128.484540
7,-128.902601,-139.292655,-139.284081,-139.274635,-139.255824,-138.760252,-142.024685,-142.003287,-141.979496,-141.931975,-140.334589,-131.134649,-146.336446,-146.321559,-146.305011,-146.271897,-145.229040,-136.394159,-129.970472
8,-130.042089,-140.489247,-140.482179,-140.474473,-140.458906,-140.044858,-142.581520,-142.561769,-142.539826,-142.495980,-141.046721,-132.654585,-146.543923,-146.529415,-146.513293,-146.481032,-145.465754,-136.941006,-131.298463
9,-131.051165,-141.547300,-141.541383,-141.534779,-141.521640,-141.167513,-143.147561,-143.129339,-143.109156,-143.068753,-141.759355,-134.011762,-146.770342,-146.756235,-146.740557,-146.709224,-145.723475,-137.532276,-132.493461
10,-131.956300,-142.495588,-142.490551,-142.484832,-142.473564,-142.165074,-143.713846,-143.697107,-143.678555,-143.641356,-142.461690,-135.288927,-147.013082,-146.999409,-146.984209,-146.953837,-145.999083,-138.142330,-133.580602
11,-132.776708,-143.354991,-143.349705,-143.343990,-143.332716,-143.063065,-144.273979,-144.258544,-144.241454,-144.207300,-143.146497,-136.437651,-147.269355,-147.256425,-147.241717,-147.212316,-146.289530,-138.751124,-134.577420
12,-133.526772,-144.140866,-144.135988,-144.130646,-144.120267,-143.879883,-144.823438,-144.809238,-144.793457,-144.761997,-143.786129,-137.539685,-147.527713,-147.515943,-147.502857,-147.476671,-146.591925,-139.353134,-135.517287
13,-134.217644,-144.865092,-144.860434,-144.855401,-144.845623,-144.629272,-145.359210,-145.346149,-145.331621,-145.302601,-144.402824,-138.573732,-147.795015,-147.783671,-147.771066,-147.745824,-146.903569,-139.944347,-136.380967
14,-134.857789,-145.536643,-145.532232,-145.527358,-145.518028,-145.321794,-145.879588,-145.867525,-145.854079,-145.827213,-144.995694,-139.523247,-148.069287,-148.058350,-148.046205,-148.021900,-147.222031,-140.554388,-137.200301
15,-135.454235,-146.162932,-146.158588,-146.153860,-146.144855,-145.965644,-146.383634,-146.372368,-146.359891,-146.334945,-145.564426,-140.406390,-148.348678,-148.338164,-148.326471,-148.303113,-147.545166,-141.166475,-137.987950
16,-136.012502,-146.749764,-146.745447,-146.740824,-146.731912,-146.567464,-146.870642,-146.860334,-146.848623,-146.825509,-146.109452,-141.291657,-148.631634,-148.621518,-148.610290,-148.587823,-147.871013,-141.760183,-138.723511
17,-136.537130,-147.301893,-147.297614,-147.292979,-147.284180,-147.132553,-147.340889,-147.331207,-147.320459,-147.298785,-146.631577,-142.114591,-148.916705,-148.907003,-148.896212,-148.874643,-148.197960,-142.335029,-139.413211
18,-137.031994,-147.823364,-147.819029,-147.814366,-147.805585,-147.665210,-147.794649,-147.785603,-147.775526,-147.755411,-147.131677,-142.882337,-149.202711,-149.193397,-149.183035,-149.162327,-148.515035,-142.890739,-140.095815
19,-137.500286,-148.317499,-148.313046,-148.308332,-148.299470,-148.169153,-148.232364,-148.223862,-148.214418,-148.195514,-147.611004,-143.600845,-149.488592,-149.479651,-149.469697,-149.449828,-148.828617,-143.427448,-140.753984
20,-137.944620,-148.787008,-148.782578,-148.777642,-148.768640,-148.623172,-148.654653,-148.646557,-148.637968,-148.619998,-148.070485,-144.275385,-149.773472,-149.764882,-149.755333,-149.736239,-149.140005,-143.973895,-141.376684
21,-138.367389,-149.234363,-149.229741,-149.224789,-149.215544,-149.075874,-149.040871,-149.035373,-149.029125,-149.016579,-148.511445,-144.932104,-150.056627,-150.048361,-150.039188,-150.020846,-149.448449,-144.519080,-141.967261
22,-138.770603,-149.661630,-149.656845,-149.651711,-149.642221,-149.507534,-149.412850,-149.407508,-149.401565,-149.389741,-148.934945,-145.562852,-150.337393,-150.329454,-150.320656,-150.303040,-149.753338,-145.044454,-142.528553
23,-139.155987,-150.070567,-150.065571,-150.060215,-150.050394,-149.920122,-149.772620,-149.767577,-149.761971,-149.750724,-149.342010,-146.158860,-150.615305,-150.607698,-150.599220,-150.582304,-150.054189,-145.550761,-143.097412
24,-139.524939,-150.462578,-150.457463,-150.451875,-150.441653,-150.315280,-150.120902,-150.116114,-150.110777,-150.100134,-149.733777,-146.723310,-150.889953,-150.882624,-150.874503,-150.858237,-150.350596,-146.038777,-143.652382
25,-139.878932,-150.839127,-150.833774,-150.827961,-150.817263,-150.694438,-150.458270,-150.453708,-150.448630,-150.438486,-150.111012,-147.258892,-151.161060,-151.153995,-151.146174,-151.130530,-150.642287,-146.509332,-144.182429
26,-140.219073,-151.201264,-151.195704,-151.189578,-151.178309,-151.058899,-150.785236,-150.780890,-150.776034,-150.766347,-150.464343,-147.768122,-151.428288,-151.421499,-151.413977,-151.398903,-150.929015,-146.963155,-144.689564
27,-140.546438,-151.549956,-151.544147,-151.537705,-151.525737,-151.409738,-151.102314,-151.098143,-151.093487,-151.084227,-150.794885,-148.253209,-151.691521,-151.685005,-151.677749,-151.663257,-151.210689,-147.400988,-145.175450
28,-140.861903,-151.885911,-151.879889,-151.873060,-151.860415,-151.748010,-151.409965,-151.405972,-151.401513,-151.392653,-151.114799,-148.716047,-151.950629,-151.944315,-151.937359,-151.923360,-151.487228,-147.827416,-145.641600
29,-141.166328,-152.209813,-152.203656,-152.196489,-152.183305,-152.074609,-151.708689,-151.704841,-151.700580,-151.692054,-151.424604,-149.158333,-152.205501,-152.199439,-152.192600,-152.179186,-151.758495,-148.257687,-146.089411
30,-141.460440,-152.522402,-152.516257,-152.508939,-152.495599,-152.390266,-151.998927,-151.995224,-151.991114,-151.982875,-151.724943,-149.581699,-152.456062,-152.450212,-152.443764,-152.430680,-152.024583,-148.673136,-146.551716
31,-141.744950,-152.824886,-152.818988,-152.811655,-152.798254,-152.695891,-152.281115,-152.277526,-152.273533,-152.265601,-152.016277,-149.973522,-152.702414,-152.696748,-152.690420,-152.677728,-152.285492,-149.074561,-147.003733
32,-142.020441,-153.120224,-153.114617,-153.107307,-153.093849,-152.994007,-152.555558,-152.552085,-152.548231,-152.540578,-152.299091,-150.349245,-152.944287,-152.938799,-152.932732,-152.920579,-152.541353,-149.462578,-147.438987
33,-142.287480,-153.411870,-153.406488,-153.399176,-153.385546,-153.288106,-152.822682,-152.819348,-152.815616,-152.808201,-152.573884,-150.710606,-153.181944,-153.176679,-153.170771,-153.159000,-152.791979,-149.837857,-147.858577
34,-142.546539,-153.696889,-153.691651,-153.684240,-153.670347,-153.575021,-153.082890,-153.079625,-153.076024,-153.068796,-152.841002,-151.058243,-153.415363,-153.410229,-153.404538,-153.393245,-153.037671,-150.201094,-148.263363
35,-142.798107,-153.976600,-153.971428,-153.963865,-153.949612,-153.856320,-153.336405,-153.333251,-153.329768,-153.322738,-153.100925,-151.393768,-153.644581,-153.639693,-153.634138,-153.623141,-153.278524,-150.552785,-148.654215
36,-143.042598,-154.249921,-154.244726,-154.236970,-154.222305,-154.130856,-153.583614,-153.580539,-153.577118,-153.570300,-153.353936,-151.717267,-153.869673,-153.864884,-153.859581,-153.848851,-153.514501,-150.893628,-149.031984
37,-143.280407,-154.517731,-154.512490,-154.504493,-154.489362,-154.399602,-153.824773,-153.821782,-153.818433,-153.811796,-153.600406,-152.030031,-154.090706,-154.086095,-154.080799,-154.070389,-153.746018,-151.223975,-149.397322
38,-143.511881,-154.775270,-154.773599,-154.765343,-154.749688,-154.661539,-154.060172,-154.057251,-154.054018,-154.047495,-153.840642,-152.332237,-154.307776,-154.303251,-154.298143,-154.288047,-153.972712,-151.544473,-149.750970
39,-143.737330,-155.024305,-155.024795,-155.021347,-155.005162,-154.918508,-154.290062,-154.287174,-154.284002,-154.277647,-154.074973,-152.624971,-154.517497,-154.514111,-154.510333,-154.501721,-154.195057,-151.855540,-150.093501
40,-143.957109,-155.267756,-155.268326,-155.265725,-155.254993,-155.169817,-154.514653,-154.511844,-154.508740,-154.502501,-154.303638,-152.908561,-154.714723,-154.711424,-154.707730,-154.700402,-154.413016,-152.157619,-150.431958
41,-144.171467,-155.505380,-155.506025,-155.503390,-155.497134,-155.414504,-154.734222,-154.731457,-154.728404,-154.722318,-154.526911,-153.183522,-154.908617,-154.905398,-154.901873,-154.894685,-154.626749,-152.451150,-150.771380
42,-144.380659,-155.738437,-155.739123,-155.736390,-155.730023,-155.655239,-154.948926,-154.946234,-154.943240,-154.937227,-154.744999,-153.450542,-155.099329,-155.096187,-155.092676,-155.085713,-154.836426,-152.736570,-151.100661
43,-144.584923,-155.967153,-155.967884,-155.965058,-155.958488,-155.892294,-155.159013,-155.156374,-155.153399,-155.147543,-154.958177,-153.709490,-155.286857,-155.283789,-155.280400,-155.273616,-155.042140,-153.006466,-151.420297
44,-144.784500,-156.189590,-156.190329,-156.187384,-156.180637,-156.120912,-155.364672,-155.362073,-155.359169,-155.353370,-155.166650,-153.961370,-155.471284,-155.468311,-155.464959,-155.458283,-155.243957,-153.267092,-151.730718
45,-144.979598,-156.407865,-156.408580,-156.405513,-156.398491,-156.345611,-155.566068,-155.563515,-155.560643,-155.554983,-155.370610,-154.206284,-155.652721,-155.649746,-155.646524,-155.640026,-155.435247,-153.520512,-152.032449
46,-145.170412,-156.622185,-156.622864,-156.619642,-156.612378,-156.566644,-155.763375,-155.760847,-155.758063,-155.752381,-155.570237,-154.444751,-155.831183,-155.828314,-155.825124,-155.818741,-155.618143,-153.767633,-152.325727
47,-145.357170,-156.832802,-156.833358,-156.829980,-156.822463,-156.784227,-155.956743,-155.954246,-155.951468,-155.945892,-155.765731,-154.676944,-156.006786,-156.003971,-156.000810,-155.994585,-155.797954,-154.008845,-152.611108
48,-145.539913,-157.039748,-157.040248,-157.036720,-157.028922,-156.998577,-156.146346,-156.143872,-156.141132,-156.135624,-155.957243,-154.903270,-156.179585,-156.176809,-156.173738,-156.167608,-155.974707,-154.244138,-152.888900
49,-145.718927,-157.241660,-157.242035,-157.238311,-157.230211,-157.206089,-156.332301,-156.329857,-156.327122,-156.321706,-156.144907,-155.123876,-156.349619,-156.346909,-156.343902,-156.337874,-156.148489,-154.473914,-153.159505
50,-145.894341,-157.439554,-157.439750,-157.435802,-157.427359,-157.408459,-156.514754,-156.512333,-156.509648,-156.504245,-156.328926,-155.339156,-156.517000,-156.514340,-156.511383,-156.505469,-156.319380,-154.698048,-153.423052
51,-146.066278,-157.634129,-157.634117,-157.629946,-157.621175,-157.603334,-156.693848,-156.691455,-156.688772,-156.683434,-156.509399,-155.549282,-156.681776,-156.679164,-156.676257,-156.670453,-156.487482,-154.917144,-153.680059
52,-146.234890,-157.825544,-157.825295,-157.820839,-157.811656,-157.794985,-156.869674,-156.867300,-156.864655,-156.859353,-156.686498,-155.754544,-156.844011,-156.841442,-156.838580,-156.832883,-156.652853,-155.131292,-153.930736
53,-146.400270,-158.013894,-158.013354,-158.008704,-157.999082,-157.983558,-157.042377,-157.040013,-157.037397,-157.032127,-156.860270,-155.955106,-157.003766,-157.001247,-156.998438,-156.992816,-156.815564,-155.340781,-154.175283
54,-146.562571,-158.199344,-158.198471,-158.193471,-158.183458,-158.169048,-157.212048,-157.209715,-157.207097,-157.201876,-157.030910,-156.151185,-157.161120,-157.158635,-157.155879,-157.150333,-156.975691,-155.545924,-154.414021
55,-146.721919,-158.382028,-158.380792,-158.375451,-158.365025,-158.351709,-157.378802,-157.376479,-157.373890,-157.368697,-157.198510,-156.342987,-157.316121,-157.313678,-157.310951,-157.305494,-157.133318,-155.746017,-154.647603
56,-146.878329,-158.561957,-158.560339,-158.554682,-158.543775,-158.531622,-157.542750,-157.540442,-157.537856,-157.532687,-157.363178,-156.524585,-157.468845,-157.466429,-157.463739,-157.458365,-157.288491,-155.942250,-154.874942
57,-147.032083,-158.739379,-158.737209,-158.731202,-158.719827,-158.708791,-157.703950,-157.701664,-157.699104,-157.693954,-157.525005,-156.696760,-157.619318,-157.616936,-157.614292,-157.608985,-157.441289,-156.134379,-155.097690
58,-147.183049,-158.912457,-158.909845,-158.903389,-158.891474,-158.881464,-157.862527,-157.860251,-157.857697,-157.852571,-157.684097,-156.865572,-157.767626,-157.765263,-157.762655,-157.757424,-157.591786,-156.322623,-155.315257
59,-147.331485,-159.083132,-159.079912,-159.073033,-159.060478,-159.051560,-158.018569,-158.016291,-158.013766,-158.008641,-157.840544,-157.031161,-157.913799,-157.911479,-157.908902,-157.903730,-157.740016,-156.507173,-155.521990
60,-147.477440,-159.251454,-159.247639,-159.240247,-159.227072,-159.219171,-158.172126,-158.169851,-158.167319,-158.162249,-157.994447,-157.193634,-158.057912,-158.055619,-158.053063,-158.047961,-157.886064,-156.688045,-155.722930
61,-147.620972,-159.417483,-159.412892,-159.405026,-159.391358,-159.384403,-158.323295,-158.321037,-158.318511,-158.313438,-158.145855,-157.353113,-158.200000,-158.197733,-158.195217,-158.190167,-158.029975,-156.865404,-155.919654
62,-147.762161,-159.581309,-159.575928,-159.567547,-159.553145,-159.547242,-158.472149,-158.469895,-158.467381,-158.462326,-158.294895,-157.509688,-158.340138,-158.337899,-158.335397,-158.330391,-158.171837,-157.039434,-156.112067
63,-147.901100,-159.743032,-159.736825,-159.727845,-159.712708,-159.707865,-158.618774,-158.616520,-158.614015,-158.608959,-158.441590,-157.663494,-158.478343,-158.476115,-158.473699,-158.468703,-158.311626,-157.210171,-156.300713
64,-148.037853,-159.902727,-159.895593,-159.886023,-159.870184,-159.866313,-158.763210,-158.760970,-158.758460,-158.753433,-158.586052,-157.814591,-158.614674,-158.612476,-158.610055,-158.605134,-158.449470,-157.377786,-156.485744
65,-148.172546,-160.060537,-160.052332,-160.042157,-160.025563,-160.022643,-158.905543,-158.903304,-158.900794,-158.895761,-158.728337,-157.963095,-158.749191,-158.747013,-158.744608,-158.739725,-158.585385,-157.542359,-156.667239
66,-148.305072,-160.216331,-160.207115,-160.196216,-160.178821,-160.176933,-159.045834,-159.043589,-159.041085,-159.036055,-158.868510,-158.109085,-158.881921,-158.879765,-158.877394,-158.872542,-158.719448,-157.704004,-156.845160
67,-148.435654,-160.370370,-160.360070,-160.348372,-160.330144,-160.329244,-159.184139,-159.181898,-159.179393,-159.174355,-159.006628,-158.252636,-159.012920,-159.010795,-159.008384,-159.003621,-158.851664,-157.862793,-157.019940
68,-148.564351,-160.522723,-160.511072,-160.498699,-160.479558,-160.479650,-159.320506,-159.318268,-159.315766,-159.310733,-159.142769,-158.393848,-159.142209,-159.140081,-159.137723,-159.132985,-158.982126,-158.018875,-157.191264
69,-148.691088,-160.673295,-160.660347,-160.647179,-160.627136,-160.628181,-159.454998,-159.452757,-159.450261,-159.445224,-159.276969,-158.532762,-159.269867,-159.267713,-159.265394,-159.260701,-159.110850,-158.172272,-157.359463
70,-148.816038,-160.822293,-160.807898,-160.793864,-160.772900,-160.774902,-159.587675,-159.585436,-159.582932,-159.577899,-159.409305,-158.669485,-159.395881,-159.393779,-159.391450,-159.386775,-159.237866,-158.323102,-157.524709
71,-148.939214,-160.969730,-160.953840,-160.938921,-160.916969,-160.919870,-159.718586,-159.716332,-159.713824,-159.708784,-159.539824,-158.804077,-159.520336,-159.518251,-159.515953,-159.511277,-159.363239,-158.471451,-157.687161
72,-149.060668,-161.115479,-161.098019,-161.082067,-161.059048,-161.062958,-159.847754,-159.845520,-159.843002,-159.837955,-159.668561,-158.936621,-159.643225,-159.641155,-159.638856,-159.634241,-159.487006,-158.617381,-157.846600
73,-149.180457,-161.259620,-161.240321,-161.223451,-161.199391,-161.204128,-159.975261,-159.973020,-159.970506,-159.965449,-159.795594,-159.067113,-159.764633,-159.762559,-159.760271,-159.755689,-159.609206,-158.760969,-158.003304
74,-149.298605,-161.402346,-161.381240,-161.363301,-161.338140,-161.343694,-160.101129,-160.098886,-160.096371,-160.091301,-159.920944,-159.195673,-159.884545,-159.882500,-159.880224,-159.875656,-159.729864,-158.902295,-158.157443
75,-149.415185,-161.543746,-161.520660,-161.501588,-161.475262,-161.481688,-160.225412,-160.223168,-160.220646,-160.215573,-160.044661,-159.322341,-160.003033,-160.000976,-159.998764,-159.994190,-159.849030,-159.041421,-158.309306
76,-149.530204,-161.683826,-161.658659,-161.638424,-161.610908,-161.618211,-160.348160,-160.345909,-160.343374,-160.338285,-160.166798,-159.447173,-160.120118,-160.118123,-160.115831,-160.111316,-159.966755,-159.178396,-158.458103
77,-149.643720,-161.822656,-161.795301,-161.773831,-161.745099,-161.753109,-160.469386,-160.467132,-160.464602,-160.459502,-160.287385,-159.570146,-160.235852,-160.233812,-160.231556,-160.227060,-160.083016,-159.313301,-158.604778
78,-149.755780,-161.979539,-161.930595,-161.907877,-161.877907,-161.886661,-160.589154,-160.586890,-160.584347,-160.579244,-160.406480,-159.691514,-160.350186,-160.348180,-160.345972,-160.341454,-160.197914,-159.446202,-158.749067
79,-149.866454,-162.198735,-162.064581,-162.040558,-162.009223,-162.018811,-160.707491,-160.705219,-160.702667,-160.697545,-160.524099,-159.811165,-160.463231,-160.461237,-160.459024,-160.454540,-160.311408,-159.577139,-158.891119
80,-149.975680,-162.417176,-162.197360,-162.171931,-162.139218,-162.149534,-160.824425,-160.822150,-160.819591,-160.814460,-160.640299,-159.929140,-160.575005,-160.573012,-160.570789,-160.566339,-160.423631,-159.699568,-159.030951
81,-150.083533,-162.634933,-162.328976,-162.302055,-162.267932,-162.278926,-160.939992,-160.937716,-160.935155,-160.929997,-160.755094,-160.045556,-160.685525,-160.683535,-160.681335,-160.676880,-160.534505,-159.818716,-159.168640
82,-150.190049,-162.852030,-162.459329,-162.430960,-162.395382,-162.407028,-161.054251,-161.051967,-161.049396,-161.044218,-160.868546,-160.160358,-160.794792,-160.792804,-160.790591,-160.786180,-160.644127,-159.936273,-159.304284
83,-150.295370,-163.068622,-162.588515,-162.558596,-162.521594,-162.533843,-161.167197,-161.164908,-161.162330,-161.157141,-160.980669,-160.273727,-160.902852,-160.900891,-160.898687,-160.894290,-160.752487,-160.052264,-159.437833
84,-150.399401,-163.284571,-162.766172,-162.685135,-162.646577,-162.659437,-161.278888,-161.276596,-161.274003,-161.268797,-161.091507,-160.385520,-161.009792,-161.007789,-161.005594,-161.001124,-160.859623,-160.166752,-159.569467
