15500MHz / Lb(0.01) dB
,h2(m),1000,1000,1000,1000,1000,10000,10000,10000,10000,10000,10000,20000,20000,20000,20000,20000,20000,20000
,h1(m),1.5,15,30,60,1000,1.5,15,30,60,1000,10000,1.5,15,30,60,1000,10000,20000
D (km),FSL
0,116.243595,110.851495,110.732632,110.598645,110.324375,-0.000000,130.912556,130.900194,130.886439,130.858871,129.952360,-0.000000,136.933807,136.927315,136.920097,136.905647,136.442582,130.818185,-0.000000
1,119.260693,113.407809,113.399070,113.389059,113.368529,113.086901,130.948951,130.945370,130.941372,130.933320,130.637098,115.697958,136.943188,136.941067,136.938705,136.933966,136.775483,133.881373,115.881993
2,123.243977,116.994186,116.995846,116.997365,117.001388,117.553935,131.053229,131.049813,131.046001,131.038337,130.758110,121.448663,136.969720,136.967629,136.965301,136.960626,136.804390,133.983493,121.731066
3,126.255864,119.850235,119.851642,119.853348,119.856964,120.342522,131.220950,131.217763,131.214228,131.207088,130.949953,124.598555,137.013465,137.011419,137.009136,137.004555,136.851408,134.140695,125.125627
4,128.560948,122.089620,122.091603,122.094012,122.098929,122.479399,131.444333,131.441422,131.438204,131.431699,131.199491,126.765134,137.073813,137.071810,137.069587,137.065115,136.915800,134.347817,127.479096
5,130.406360,123.910785,123.912999,123.915404,123.920466,124.219484,131.714298,131.711676,131.708783,131.702929,131.496383,128.371422,137.149958,137.148016,137.145855,137.141510,136.996612,134.595659,129.212966
6,131.938920,125.441446,125.443431,125.445712,125.450433,125.692411,132.022105,132.019619,132.016845,132.011369,131.829594,129.641690,137.240960,137.239083,137.236983,137.232791,137.092747,134.874898,130.627502
7,133.246678,126.760594,126.762495,126.764679,126.769103,126.978294,132.359182,132.356974,132.354504,132.349578,132.188951,130.693747,137.345779,137.343967,137.341947,137.337891,137.203004,135.176867,131.804975
8,134.386166,127.919969,127.921731,127.923826,127.927849,128.111622,132.716677,132.714711,132.712521,132.708146,132.565743,131.573108,137.463281,137.461537,137.459596,137.455696,137.326116,135.494210,132.790129
9,135.395241,128.954682,128.956377,128.958226,128.961976,129.125392,133.087786,133.086007,133.084066,133.080139,132.952979,132.344986,137.592334,137.590654,137.588783,137.585046,137.460775,135.810129,133.642354
10,136.300377,129.889569,129.891088,129.892787,129.896338,130.043201,133.466876,133.465292,133.463558,133.460008,133.345166,133.014886,137.731752,137.730141,137.728344,137.724759,137.605709,136.125882,134.392237
11,137.120785,130.742661,130.744611,130.746813,130.751025,130.882250,133.849528,133.848068,133.846482,133.843310,133.738097,133.625477,137.880433,137.878863,137.877136,137.873684,137.759674,136.442521,135.062671
12,137.870849,131.527648,131.529660,131.531826,131.536052,131.655467,134.232249,134.230921,134.229438,134.226528,134.130585,134.172064,138.037988,138.036423,138.034677,138.031169,137.921482,136.757472,135.657441
13,138.561721,132.255174,132.257188,132.259397,132.263615,132.372866,134.612368,134.611163,134.609807,134.607123,134.518245,134.672351,138.202613,138.201109,138.199436,138.196061,138.090001,137.068860,136.205234
14,139.201866,132.933325,132.935475,132.937686,132.941964,133.042380,134.988013,134.986888,134.985617,134.983033,134.899516,135.140152,138.373307,138.371849,138.370230,138.366978,138.264195,137.367239,136.703561
15,139.798312,133.568863,133.571051,133.573347,133.577742,133.670307,135.357832,135.356694,135.355455,135.352952,135.273224,135.578849,138.549092,138.547688,138.546118,138.542991,138.443116,137.655564,137.156009
16,140.356579,134.167099,134.169360,134.171779,134.176205,134.261884,135.720565,135.719603,135.718300,135.715947,135.638680,135.982168,138.729125,138.727759,138.726247,138.723211,138.625861,137.938127,137.580251
17,140.881207,134.732409,134.734820,134.737311,134.741921,134.821347,136.075768,136.074784,136.073673,136.071211,135.995483,136.365251,138.912579,138.911265,138.909795,138.906857,138.811656,138.214699,137.979796
18,141.376071,135.268543,135.271067,135.273677,135.278489,135.352181,136.423123,136.422113,136.420967,136.418731,136.343332,136.730392,139.098753,139.097476,139.096047,139.093193,139.000577,138.485110,138.345357
19,141.844363,135.778591,135.781216,135.783978,135.788994,135.857469,136.762285,136.761255,136.760109,136.757793,136.682349,137.079445,139.286983,139.285738,139.284341,139.281565,139.191380,138.749352,138.687242
20,142.288697,136.265067,136.267993,136.270781,136.276035,136.356520,137.093270,137.092128,137.091237,137.088713,137.012335,137.414059,139.476687,139.475465,139.474103,139.471376,139.383268,139.002693,139.012787
21,142.711466,136.730293,136.733345,136.736421,136.741894,136.819600,137.418671,137.417514,137.416076,137.413146,137.333634,137.733065,139.667354,139.666144,139.664805,139.662125,139.575752,139.247215,139.323624
22,143.114680,137.176206,137.179459,137.182699,137.188468,137.263766,137.736475,137.735153,137.733674,137.730759,137.646394,138.038971,139.858489,139.857298,139.855990,139.853352,139.768399,139.486235,139.621121
23,143.500064,137.604448,137.607900,137.611304,137.617357,137.690720,138.045972,138.044655,138.043187,138.040208,137.950806,138.334162,140.049708,140.048548,140.047239,140.044643,139.960830,139.719918,139.897889
24,143.869016,138.016309,138.020106,138.023707,138.030037,138.101880,138.347544,138.346220,138.344723,138.341745,138.247253,138.619491,140.240651,140.239492,140.238216,140.235644,140.152699,139.948440,140.160996
25,144.223009,138.413150,138.417219,138.421064,138.427648,138.498489,138.641478,138.640124,138.638609,138.635577,138.535849,138.895619,140.431049,140.429878,140.428605,140.426068,140.343736,140.171996,140.414579
26,144.563150,138.795876,138.800307,138.804338,138.811105,138.881694,138.927991,138.926620,138.925071,138.921981,138.818337,139.163236,140.620544,140.619378,140.618131,140.615578,140.533645,140.390738,140.659463
27,144.890515,139.164045,139.168863,139.173095,139.179887,139.251208,139.207352,139.205944,139.204354,139.201213,139.095117,139.422916,140.808980,140.807850,140.806585,140.804061,140.722277,140.604823,140.896311
28,145.205980,139.515157,139.520482,139.524832,139.531609,139.604860,139.479803,139.478370,139.476753,139.473561,139.364812,139.675155,140.996163,140.995003,140.993778,140.991209,140.909457,140.814045,141.125726
29,145.510405,139.851420,139.857514,139.862084,139.869131,139.945814,139.745634,139.744157,139.742527,139.739252,139.627647,139.920336,141.181907,141.180770,141.179387,141.176927,141.094950,141.016826,141.348260
30,145.804517,140.173645,140.181100,140.186348,140.194608,140.275464,140.005101,140.003594,140.001917,139.998535,139.883977,140.158954,141.366062,141.364913,141.363691,141.361068,141.278724,141.215575,141.559036
31,146.089027,140.483136,140.492960,140.499515,140.509729,140.595153,140.258477,140.256917,140.255174,140.251729,140.134023,140.392411,141.548595,141.547436,141.546114,141.543412,141.460654,141.410468,141.762847
32,146.364518,140.781246,140.794212,140.802508,140.815038,140.905014,140.505915,140.504313,140.502533,140.499020,140.378049,140.620147,141.729198,141.728024,141.726723,141.724154,141.640735,141.601604,141.961333
33,146.631557,141.071641,141.086785,141.096515,141.111365,141.205959,140.747704,140.746092,140.744273,140.740664,140.616344,140.842198,141.907995,141.906882,141.905540,141.902913,141.818680,141.789119,142.154855
34,146.890616,141.354707,141.373374,141.384069,141.399517,141.498847,140.984122,140.982440,140.980593,140.976862,140.849087,141.058599,142.084936,142.083709,142.082396,142.079869,141.994601,141.973171,142.343676
35,147.142184,141.630302,141.652534,141.665045,141.681953,141.784627,141.215281,141.213578,141.211700,141.207870,141.076582,141.270223,142.259852,142.258727,142.257368,142.254742,142.168537,142.153829,142.528067
36,147.386675,141.897489,141.923324,141.937671,141.956746,142.062024,141.441465,141.439714,141.437760,141.433858,141.298970,141.476699,142.432795,142.431611,142.430318,142.427592,142.340261,142.331284,142.708301
37,147.624484,142.158292,142.187876,142.204092,142.225380,142.333880,141.662838,141.661050,141.659030,141.655044,141.516491,141.678700,142.603719,142.602554,142.601084,142.598338,142.510075,142.505527,142.884564
38,147.855958,142.412575,142.446021,142.464191,142.487762,142.600156,141.879604,141.877769,141.875739,141.871608,141.729327,141.876035,142.772635,142.771407,142.769969,142.767199,142.677550,142.676758,143.057091
39,148.081407,142.659499,142.697039,142.717229,142.743198,142.859716,142.091938,142.090024,142.087933,142.083724,141.937695,142.069308,142.939899,142.938506,142.936936,142.933953,142.842966,142.845043,143.226043
40,148.301186,142.899302,142.941104,142.963406,142.991882,143.112840,142.299972,142.298035,142.295893,142.291565,142.141740,142.258475,143.106401,143.104989,143.103392,143.100250,143.006243,143.010460,143.390882
41,148.515544,143.132557,143.178888,143.203454,143.234492,143.361312,142.503926,142.501930,142.499728,142.495326,142.341637,142.443727,143.270758,143.269329,143.267798,143.264582,143.167378,143.173119,143.551207
42,148.724736,143.361649,143.412785,143.439699,143.473589,143.608435,142.703894,142.701873,142.699621,142.695077,142.537515,142.625359,143.433087,143.431641,143.430012,143.426816,143.326472,143.333131,143.708534
43,148.929000,143.584415,143.640667,143.670080,143.706886,143.850358,142.900065,142.898008,142.895668,142.891076,142.729569,142.803097,143.593317,143.591855,143.590250,143.587025,143.483516,143.491141,143.862992
44,149.128577,143.801026,143.862699,143.894754,143.934702,144.087296,143.092588,143.090478,143.088111,143.083368,142.917933,142.977537,143.751484,143.750034,143.748367,143.745060,143.638479,143.647024,144.014682
45,149.323675,144.011622,144.079028,144.113885,144.157057,144.319413,143.281576,143.279422,143.276987,143.272192,143.102737,143.148575,143.907656,143.906115,143.904488,143.901174,143.792415,143.800067,144.163764
46,149.514488,144.216329,144.289815,144.327613,144.374236,144.546918,143.467156,143.464943,143.462504,143.457496,143.284101,143.316515,144.061801,144.060285,144.058598,144.055214,143.944948,143.950762,144.310234
47,149.701247,144.415322,144.495177,144.536092,144.586352,144.769979,143.649444,143.647180,143.644655,143.639570,143.462169,143.481310,144.213986,144.212447,144.210699,144.207304,144.095504,144.099291,144.454296
48,149.883990,144.608554,144.695235,144.739460,144.793535,144.988768,143.828573,143.826253,143.823678,143.818482,143.637046,143.643165,144.364233,144.362657,144.360918,144.357445,144.244052,144.245507,144.596006
49,150.063004,144.798096,144.891984,144.939701,144.997841,145.205445,144.004629,144.002262,143.999605,143.994332,143.808814,143.802073,144.512537,144.510954,144.509197,144.505665,144.390636,144.389595,144.735488
50,150.238417,144.982804,145.084288,145.135686,145.198103,145.418887,144.177726,144.175307,144.172618,144.167188,143.977635,143.958242,144.658974,144.657371,144.655585,144.652009,144.535290,144.531323,144.872701
51,150.410355,145.162262,145.271752,145.327048,145.394000,145.628617,144.347977,144.345512,144.342745,144.337217,144.143571,144.111706,144.803559,144.801935,144.800123,144.796504,144.678066,144.671065,145.007854
52,150.578967,145.336566,145.454488,145.513839,145.585484,145.834818,144.515448,144.512931,144.510121,144.504470,144.306755,144.262599,144.946322,144.944674,144.942834,144.939173,144.818984,144.808770,145.140976
53,150.744347,145.505747,145.632513,145.696242,145.772808,146.037627,144.680256,144.677680,144.674821,144.669049,144.467199,144.410966,145.087292,145.085629,145.083769,145.080041,144.958075,144.944575,145.272094
54,150.906648,145.669911,145.805955,145.874130,145.955933,146.237016,144.842469,144.839856,144.836922,144.831046,144.625069,144.556899,145.226517,145.224826,145.222949,145.219157,145.095377,145.078619,145.401298
55,151.065995,145.829135,145.974914,146.047787,146.135072,146.433239,145.002182,144.999513,144.996533,144.990537,144.780425,144.700488,145.364018,145.362309,145.360394,145.356557,145.230937,145.210297,145.528916
56,151.222406,145.983363,146.139359,146.217201,146.310174,146.626363,145.159483,145.156764,145.153716,145.147600,144.933348,144.842652,145.499845,145.498103,145.496160,145.492273,145.364770,145.340420,145.654184
57,151.376160,146.132870,146.299410,146.382435,146.481392,146.816440,145.314413,145.311652,145.308558,145.302320,145.083904,144.983378,145.633999,145.632233,145.630271,145.626323,145.496922,145.468720,145.778068
58,151.527125,146.277421,146.455170,146.543554,146.648747,147.003596,145.467078,145.464265,145.461108,145.454755,145.232175,145.121895,145.766539,145.764735,145.762749,145.758751,145.627434,145.595292,145.900087
59,151.675562,146.417273,146.606580,146.700615,146.812235,147.187907,145.617549,145.614673,145.611478,145.604990,145.378229,145.258282,145.897475,145.895659,145.893642,145.889583,145.756316,145.720259,146.021153
60,151.821517,146.552421,146.753838,146.853696,146.972068,147.369454,145.765861,145.762929,145.759659,145.753092,145.522145,145.392590,146.026858,146.025017,146.022962,146.018853,145.883623,145.843526,146.140790
61,151.965048,146.683096,146.896978,147.002979,147.128559,147.548599,145.912096,145.909122,145.905793,145.899092,145.663954,145.524890,146.154702,146.152837,146.150763,146.146591,146.009376,145.965158,146.258818
62,152.106238,146.809347,147.036232,147.148615,147.281462,147.725321,146.056313,146.053286,146.049905,146.043091,145.803764,145.655222,146.281066,146.279178,146.277061,146.272822,146.133636,146.085262,146.375094
63,152.245177,146.931017,147.171421,147.290375,147.430807,147.899545,146.198585,146.195501,146.192065,146.185125,145.941580,145.783672,146.405947,146.404020,146.401933,146.397593,146.256360,146.203804,146.489924
64,152.381929,147.048139,147.302508,147.428328,147.576702,148.071296,146.338940,146.335814,146.332311,146.325276,146.077499,145.910262,146.529385,146.527438,146.525296,146.520921,146.377651,146.320866,146.603394
65,152.516623,147.160825,147.429561,147.562514,147.719101,148.240623,146.477454,146.474273,146.470709,146.463543,146.211562,146.035063,146.651422,146.649449,146.647269,146.642828,146.497506,146.436463,146.715489
66,152.649149,147.268888,147.552616,147.692862,147.857936,148.407592,146.614174,146.610933,146.607314,146.600031,146.343820,146.158118,146.772073,146.770074,146.767877,146.763364,146.615979,146.550638,146.826101
67,152.779730,147.372574,147.671774,147.819520,147.993377,148.572259,146.749148,146.745858,146.742179,146.734767,146.474314,146.279466,146.891374,146.889363,146.887074,146.882549,146.733061,146.663396,146.935543
68,152.908428,147.471922,147.786860,147.942532,148.125414,148.734686,146.882414,146.879074,146.875338,146.867813,146.603112,146.399171,147.009337,147.007273,147.004992,147.000392,146.848823,146.774838,147.043480
69,153.035165,147.566796,147.898086,148.061844,148.254093,148.894894,147.014025,147.010630,147.006843,146.999197,146.730238,146.517245,147.126023,147.123891,147.121598,147.116947,146.963268,146.884918,147.150131
70,153.160115,147.657390,148.005423,148.177479,148.379405,149.052937,147.144034,147.140589,147.136736,147.128980,146.855756,146.633764,147.241406,147.239286,147.236934,147.232205,147.076406,146.993698,147.255580
71,153.283291,147.743693,148.108966,148.289590,148.501448,149.208864,147.272481,147.268970,147.265057,147.257180,146.979705,146.748759,147.355564,147.353417,147.351047,147.346223,147.188289,147.101216,147.359921
72,153.404745,147.825747,148.208729,148.398050,148.620089,149.362757,147.399381,147.395841,147.391861,147.383864,147.102108,146.862290,147.468467,147.466296,147.463881,147.459027,147.298939,147.207484,147.462910
73,153.524534,147.903606,148.304547,148.502984,148.735566,149.514550,147.524809,147.521212,147.517181,147.509063,147.223034,146.974321,147.580199,147.577984,147.575534,147.570623,147.408381,147.312533,147.564729
74,153.642682,148.052109,148.396753,148.604426,148.847809,149.664360,147.648781,147.645132,147.641045,147.632804,147.342496,147.084952,147.690731,147.688504,147.686022,147.681035,147.516628,147.416394,147.665475
75,153.759262,148.203931,148.485200,148.702320,148.956752,149.812215,147.771343,147.767645,147.763497,147.755143,147.460535,147.194202,147.800123,147.797843,147.795386,147.790305,147.623715,147.519092,147.765340
76,153.874281,148.354052,148.569956,148.796767,149.062537,149.958205,147.892540,147.888786,147.884572,147.876094,147.577195,147.302103,147.908390,147.906135,147.903549,147.898444,147.729683,147.620637,147.863655
77,153.987804,148.514647,148.651073,148.887775,149.165162,150.102150,148.012379,148.008575,148.004312,147.995716,147.692500,147.408614,148.015568,148.013231,148.010640,148.005469,147.834495,147.721067,147.961145
78,154.099881,148.698167,148.725753,148.972465,149.261576,150.240757,148.130918,148.127056,148.122727,148.114022,147.806499,147.513964,148.121604,148.119262,148.116679,148.111401,147.938243,147.820411,148.057523
79,154.210476,148.880334,148.842462,149.053412,149.354370,150.377071,148.248179,148.244263,148.239871,148.231043,147.919203,147.618036,148.226601,148.224234,148.221604,148.216277,148.040876,147.918680,148.152921
80,154.319738,149.061573,148.985114,149.130948,149.444012,150.511401,148.364185,148.360218,148.355769,148.346826,148.030661,147.720835,148.330565,148.328163,148.325483,148.320112,148.142518,148.016826,148.247304
81,154.427617,149.241791,149.126300,149.205128,149.530529,150.643843,148.478966,148.474953,148.470450,148.461377,148.140881,147.822475,148.433509,148.431073,148.428379,148.422919,148.243078,148.114151,148.340687
82,154.534141,149.420997,149.265909,149.304834,149.613926,150.774431,148.592578,148.588511,148.583947,148.574751,148.249921,147.922884,148.535422,148.532954,148.530204,148.524714,148.342646,148.210443,148.433176
83,154.639479,149.599387,149.430347,149.444163,149.694220,150.903159,148.705012,148.700894,148.696273,148.686963,148.357787,148.022223,148.636345,148.633871,148.631092,148.625537,148.441203,148.305708,148.524628
84,154.743449,149.776687,149.604021,149.582180,149.771410,151.030089,148.816320,148.812155,148.807468,148.798039,148.464519,148.120343,148.736362,148.733808,148.731002,148.725294,148.538779,148.399986,148.615217
85,154.846234,149.953112,149.776848,149.718751,149.845579,151.155204,148.926511,148.922302,148.917553,148.908001,148.570141,148.217427,148.835360,148.832809,148.829970,148.824260,148.635452,148.493286,148.704882
86,154.947822,150.128615,149.948709,149.865975,149.916698,151.278567,149.035633,149.031359,149.026564,149.016896,148.674662,148.313445,148.933454,148.930870,148.928000,148.922228,148.731095,148.585629,148.793680
87,155.048324,150.303314,150.119762,150.035070,150.043388,151.400174,149.143687,149.139364,149.134502,149.124707,148.778099,148.408348,149.030637,149.028052,149.025121,149.019290,148.825889,148.677029,148.881564
88,155.147451,150.476779,150.290004,150.203506,150.177236,151.520110,149.250699,149.246333,149.241405,149.231492,148.880510,148.502282,149.126910,149.124320,149.121329,149.115442,148.919757,148.767501,148.968630
89,155.245658,150.649598,150.459433,150.371004,150.309819,151.638232,149.356731,149.352281,149.347310,149.337271,148.981908,148.595187,149.222353,149.219670,149.216748,149.210693,149.012730,148.857090,149.054844
90,155.342678,150.821370,150.628050,150.537729,150.441152,151.754735,149.461729,149.457252,149.452214,149.442056,149.082310,148.687105,149.316847,149.314154,149.311143,149.305108,149.104869,148.945797,149.140214
91,155.438608,150.992192,150.795913,150.703803,150.590251,151.869587,149.565771,149.561237,149.556143,149.545872,149.181711,148.778053,149.410526,149.407828,149.404765,149.398677,149.196101,149.033626,149.224802
92,155.533466,151.152557,150.953107,150.858764,150.741815,151.970222,149.668938,149.664797,149.660157,149.650752,149.280179,148.868054,149.503385,149.500640,149.497549,149.491390,149.286515,149.120618,149.308574
