300MHz / Lb(0.95) dB
,h2(m),1000,1000,1000,1000,1000,10000,10000,10000,10000,10000,10000,20000,20000,20000,20000,20000,20000,20000
,h1(m),1.5,15,30,60,1000,1.5,15,30,60,1000,10000,1.5,15,30,60,1000,10000,20000
D (km),FSL
0,-81.979386,-89.598825,-89.480575,-89.347271,-89.074364,0.000000,-109.612720,-109.600972,-109.587899,-109.561695,-108.697915,0.000000,-115.633972,-115.628093,-115.621557,-115.608470,-115.188137,-109.610905,0.000000
1,-84.996485,-93.663886,-93.500856,-93.319949,-92.959593,-85.301313,-109.673056,-109.641407,-109.606223,-109.535798,-107.319394,-82.440542,-115.648589,-115.632662,-115.614961,-115.579543,-114.459165,-104.268461,-82.322116
2,-88.979768,-98.551433,-98.476413,-98.392843,-98.227668,-94.223100,-109.857081,-109.826136,-109.791739,-109.722922,-107.550558,-88.677671,-115.695652,-115.679795,-115.662172,-115.626907,-114.511902,-104.426630,-88.475161
3,-91.991655,-101.868446,-101.837701,-101.803755,-101.736265,-99.523576,-110.151398,-110.121587,-110.088488,-110.022218,-107.919603,-92.525554,-115.773401,-115.757687,-115.740213,-115.705252,-114.600310,-104.692625,-92.096031
4,-94.296739,-104.333407,-104.313494,-104.291616,-104.248051,-102.884902,-110.539260,-110.510926,-110.479489,-110.416540,-108.423512,-95.335076,-115.880729,-115.865197,-115.847950,-115.813419,-114.722997,-105.046586,-94.715426
5,-96.142151,-106.279977,-106.265956,-106.250333,-106.219401,-105.331821,-111.001054,-110.974417,-110.944870,-110.885703,-109.020993,-97.612359,-116.016048,-116.000775,-115.983803,-115.949833,-114.877982,-105.472436,-96.832582
6,-97.674620,-107.877360,-107.871243,-107.859355,-107.835775,-107.226340,-111.509163,-111.486339,-111.460972,-111.409476,-109.679317,-99.541929,-116.177406,-116.162441,-116.145789,-116.112514,-115.062837,-105.953553,-98.564479
7,-98.982492,-108.759729,-109.231873,-109.222465,-109.203730,-108.709418,-112.042111,-112.020995,-111.997518,-111.950623,-110.373480,-101.214753,-116.362575,-116.347952,-116.331697,-116.299170,-115.274786,-106.474269,-100.050449
8,-100.121957,-108.556205,-110.411435,-110.403760,-110.388262,-109.975336,-112.595685,-112.576225,-112.554605,-112.511406,-111.083147,-102.734686,-116.569080,-116.554839,-116.539015,-116.507347,-115.510819,-107.021115,-101.378441
9,-101.131014,-107.603661,-111.452069,-111.445494,-111.432415,-111.079311,-113.158200,-113.140279,-113.120429,-113.080695,-111.793131,-104.091934,-116.794408,-116.780572,-116.765196,-116.734467,-115.767775,-107.612458,-102.573470
10,-102.036168,-106.720659,-112.382646,-112.376953,-112.365736,-112.058196,-113.720731,-113.704303,-113.686097,-113.649591,-112.492661,-105.369094,-117.035944,-117.022547,-117.007654,-116.977894,-116.042542,-108.222509,-103.660611
11,-102.856576,-106.228233,-113.223195,-113.217502,-113.206274,-112.937517,-114.276917,-114.261804,-114.245073,-114.211637,-113.174532,-106.517813,-117.290836,-117.278256,-117.263860,-117.235084,-116.332073,-108.831300,-104.657471
12,-103.606647,-106.074681,-113.990860,-113.985537,-113.975199,-113.735669,-114.822262,-114.808397,-114.792989,-114.762274,-113.811062,-107.619932,-117.547783,-117.536298,-117.523531,-117.497981,-116.633484,-109.433308,-105.597338
13,-104.297471,-106.170065,-114.696681,-114.691664,-114.681922,-114.466398,-115.353779,-115.341065,-115.326924,-115.298678,-114.424620,-108.653973,-117.813578,-117.802526,-117.790245,-117.765651,-116.944077,-110.024517,-106.461017
14,-104.937671,-106.433251,-115.349849,-115.344989,-115.335690,-115.140264,-115.869781,-115.858078,-115.845033,-115.818972,-115.014274,-109.603481,-118.086254,-118.075615,-118.063800,-118.040158,-117.261430,-110.634649,-107.280406
15,-105.534089,-106.798475,-115.957573,-115.952855,-115.943876,-115.765464,-116.369344,-116.358453,-116.346392,-116.322283,-115.579723,-110.486718,-118.363966,-118.353756,-118.342400,-118.319719,-117.583399,-111.246731,-108.068054
16,-106.092337,-107.224886,-116.525799,-116.521182,-116.512294,-116.348639,-116.851781,-116.841860,-116.830583,-116.808337,-116.121410,-111.371976,-118.645165,-118.635359,-118.624477,-118.602702,-117.908027,-111.840434,-108.803614
17,-106.617004,-107.692230,-117.059335,-117.054702,-117.045922,-116.895087,-117.317378,-117.308098,-117.297799,-117.277027,-116.640144,-112.194901,-118.928408,-118.919023,-118.908585,-118.887723,-118.233708,-112.415276,-109.493313
18,-107.111872,-108.461807,-117.562124,-117.557459,-117.548691,-117.409109,-117.766419,-117.757790,-117.748179,-117.728998,-117.136811,-112.962639,-119.212518,-119.203530,-119.193529,-119.173544,-118.549412,-112.970980,-110.175988
19,-107.580125,-109.371667,-118.037521,-118.032799,-118.023945,-117.894422,-118.199353,-118.191284,-118.182323,-118.164389,-117.612667,-113.681139,-119.496444,-119.487835,-119.478251,-119.459122,-118.861645,-113.507683,-110.834155
20,-108.024500,-110.241447,-118.488438,-118.483495,-118.474495,-118.329816,-118.616809,-118.609163,-118.601071,-118.584108,-118.068645,-114.355671,-119.779311,-119.771062,-119.761891,-119.743554,-119.171645,-114.054229,-111.456853
21,-108.447274,-111.074487,-118.917008,-118.912037,-118.902792,-118.763899,-118.998055,-118.993019,-118.987289,-118.975782,-118.506074,-115.012445,-120.060402,-120.052484,-120.043698,-120.026132,-119.478668,-114.599407,-112.047428
22,-108.850468,-111.873885,-119.325536,-119.320377,-119.310881,-119.176946,-119.365113,-119.360252,-119.354845,-119.344096,-118.926015,-115.643184,-120.339056,-120.331473,-120.323072,-120.306249,-119.782105,-115.124774,-112.608717
23,-109.235810,-112.642349,-119.715714,-119.710328,-119.700498,-119.570926,-119.719926,-119.715380,-119.710328,-119.700193,-119.329499,-116.239184,-120.614812,-120.607569,-120.599498,-120.583394,-120.081474,-115.631073,-113.177665
24,-109.604823,-113.382331,-120.089099,-120.083474,-120.073245,-119.947482,-120.063218,-120.058943,-120.054178,-120.044684,-119.717663,-116.803627,-120.887262,-120.880307,-120.872601,-120.857167,-120.376373,-116.119083,-113.732632
25,-109.958815,-114.095960,-120.446968,-120.441109,-120.430414,-120.308043,-120.395563,-120.391532,-120.387044,-120.378087,-120.091277,-117.339202,-121.156135,-121.149452,-121.142056,-121.127263,-120.666531,-116.589630,-114.262676
26,-110.298947,-114.785166,-120.790547,-120.784371,-120.773128,-120.653913,-120.717479,-120.713680,-120.709434,-120.700970,-120.440884,-117.848425,-121.421094,-121.414696,-121.407608,-121.393406,-120.951704,-117.043446,-114.769808
27,-110.626296,-115.451804,-121.120780,-121.114284,-121.102383,-120.986169,-121.029480,-121.025874,-121.021846,-121.013848,-120.767774,-118.333505,-121.682025,-121.675908,-121.669098,-121.655498,-121.231802,-117.481273,-115.255691
28,-110.941749,-116.097460,-121.438517,-121.431629,-121.419080,-121.305864,-121.332032,-121.328619,-121.324807,-121.317247,-121.084021,-118.796337,-121.938802,-121.932897,-121.926396,-121.913309,-121.506746,-117.907760,-115.721838
29,-111.246202,-116.723943,-121.744538,-121.737281,-121.724142,-121.613891,-121.625633,-121.622383,-121.618788,-121.611601,-121.390146,-119.238618,-122.191315,-122.185671,-122.179300,-122.166817,-121.776400,-118.338023,-116.169646
30,-111.540314,-117.332834,-122.039629,-122.032116,-122.018642,-121.910985,-121.910728,-121.907640,-121.904215,-121.897354,-121.686791,-119.661980,-122.439491,-122.434069,-122.428097,-122.415968,-122.040860,-118.753464,-116.632049
31,-111.824825,-117.925877,-122.324844,-122.317145,-122.303364,-122.197958,-122.187753,-122.184797,-122.181509,-122.174992,-121.974419,-120.053755,-122.683435,-122.678206,-122.672366,-122.660651,-122.300124,-119.154881,-117.084061
32,-112.100309,-118.504068,-122.600973,-122.593099,-122.579004,-122.475407,-122.457016,-122.454193,-122.451064,-122.444865,-122.253516,-120.429476,-122.922878,-122.917838,-122.912269,-122.901113,-122.554326,-119.542891,-117.519312
33,-112.367349,-119.068165,-122.868673,-122.860591,-122.846060,-122.743911,-122.718943,-122.716276,-122.713289,-122.707367,-122.524580,-120.790834,-123.158085,-123.153277,-123.147877,-123.137126,-122.803281,-119.918162,-117.938897
34,-112.626407,-119.618773,-123.128426,-123.120055,-123.105012,-123.004033,-122.973937,-122.971358,-122.968520,-122.962825,-122.787960,-121.138469,-123.389034,-123.384367,-123.379196,-123.368943,-123.047289,-120.281392,-118.343680
35,-112.877975,-120.156722,-123.380665,-123.371951,-123.356293,-123.256247,-123.222224,-123.219773,-123.217072,-123.211616,-123.044134,-121.473992,-123.615764,-123.611352,-123.606328,-123.596394,-123.286447,-120.633076,-118.734528
36,-113.122466,-120.682776,-123.625749,-123.616655,-123.600328,-123.500998,-123.464189,-123.461835,-123.459218,-123.454011,-123.293386,-121.797491,-123.838350,-123.834048,-123.829287,-123.819643,-123.520718,-120.973912,-119.112293
37,-113.360275,-121.197704,-123.864097,-123.854571,-123.837512,-123.738706,-123.700092,-123.697839,-123.695313,-123.690328,-123.536088,-122.110254,-124.056862,-124.052747,-124.048007,-124.038706,-123.750518,-121.304253,-119.477628
38,-113.591750,-121.702200,-124.095979,-124.085998,-124.068144,-123.969733,-123.930220,-123.928055,-123.925663,-123.920834,-123.772547,-122.412460,-124.271396,-124.267378,-124.262836,-124.253871,-123.975487,-121.624744,-119.831273
39,-113.817198,-122.196886,-124.321778,-124.311295,-124.292616,-124.194436,-124.154826,-124.152712,-124.150403,-124.145780,-124.003092,-122.705194,-124.478468,-124.475600,-124.472399,-124.465040,-124.196097,-121.935804,-120.173801
40,-114.036977,-122.682494,-124.541768,-124.530744,-124.511194,-124.413150,-124.374122,-124.372105,-124.369883,-124.365417,-124.227963,-122.988785,-124.673133,-124.670361,-124.667256,-124.661105,-124.412313,-122.237877,-120.512318
41,-114.251335,-123.159538,-124.756260,-124.744695,-124.724168,-124.626090,-124.588382,-124.586427,-124.584277,-124.580003,-124.447433,-123.263746,-124.864453,-124.861772,-124.858845,-124.852859,-124.624295,-122.531401,-120.851737
42,-114.460527,-123.628545,-124.965476,-124.953288,-124.931838,-124.833604,-124.797767,-124.795902,-124.793831,-124.789672,-124.661710,-123.530768,-125.052578,-125.049985,-125.047085,-125.041346,-124.832213,-122.816815,-121.181014
43,-114.664789,-124.090010,-125.169689,-125.156858,-125.134364,-125.035939,-125.002523,-125.000729,-124.998697,-124.994735,-124.871069,-123.789718,-125.237508,-125.235000,-125.232233,-125.226696,-125.036161,-123.086660,-121.500646
44,-114.864368,-124.544456,-125.369124,-125.355613,-125.332083,-125.233332,-125.202839,-125.201103,-125.199162,-125.195298,-125.075714,-124.041600,-125.419326,-125.416922,-125.414205,-125.408801,-125.236205,-123.347281,-121.811064
45,-115.059476,-124.992336,-125.563985,-125.549767,-125.525076,-125.425974,-125.398881,-125.397210,-125.395321,-125.391635,-125.275839,-124.286517,-125.598143,-125.595750,-125.593174,-125.587970,-125.425624,-123.600697,-122.112792
46,-115.250284,-125.434019,-125.754487,-125.739506,-125.713646,-125.614088,-125.590823,-125.589195,-125.587413,-125.583749,-125.471622,-124.524986,-125.773976,-125.771698,-125.769167,-125.764103,-125.606736,-123.847812,-122.406067
47,-115.437010,-125.869979,-125.940801,-125.925028,-125.897949,-125.797862,-125.778816,-125.777237,-125.775482,-125.771964,-125.663264,-124.757183,-125.946940,-125.944726,-125.942236,-125.937354,-125.784757,-124.089020,-122.691446
48,-115.619775,-126.300476,-126.123102,-126.106514,-126.078148,-125.977483,-125.963032,-125.961495,-125.959799,-125.956389,-125.850917,-124.983513,-126.117090,-126.114928,-126.112538,-126.107775,-125.959714,-124.324308,-122.969235
49,-115.798797,-126.726053,-126.301578,-126.284117,-126.254425,-126.153108,-126.143591,-126.142102,-126.140431,-126.137154,-126.034714,-125.204123,-126.284468,-126.282381,-126.280068,-126.275431,-126.131693,-124.554080,-123.239838
50,-115.974209,-127.146976,-126.476373,-126.457989,-126.426905,-126.324923,-126.320638,-126.319189,-126.317589,-126.314366,-126.214857,-125.419408,-126.449182,-126.447157,-126.444906,-126.440407,-126.300777,-124.778209,-123.503383
51,-116.146146,-127.563519,-126.647632,-126.628295,-126.595791,-126.493025,-126.494314,-126.492911,-126.491334,-126.488217,-126.391446,-125.629538,-126.611284,-126.609318,-126.607129,-126.602765,-126.467067,-124.997301,-123.760388
52,-116.314758,-127.976026,-126.801668,-126.795137,-126.761098,-126.657604,-126.664713,-126.663348,-126.661828,-126.658788,-126.564654,-125.834806,-126.770838,-126.768925,-126.766794,-126.762561,-126.630620,-125.211446,-124.011063
53,-116.480138,-128.384705,-126.926840,-126.958721,-126.923081,-126.818802,-126.831978,-126.830641,-126.829171,-126.826205,-126.734527,-126.035374,-126.927903,-126.926051,-126.923985,-126.919852,-126.791508,-125.420930,-124.255608
54,-116.642439,-128.789915,-127.025555,-127.119002,-127.081759,-126.976635,-126.996210,-126.994913,-126.993463,-126.990586,-126.901260,-126.231459,-127.082560,-127.080753,-127.078752,-127.074719,-126.949807,-125.626070,-124.494344
55,-116.801787,-129.191953,-127.099898,-127.276261,-127.237350,-127.131337,-127.157494,-127.156238,-127.154836,-127.152029,-127.064945,-126.423268,-127.234857,-127.233103,-127.231143,-127.227224,-127.105602,-125.826158,-124.727925
56,-116.958197,-129.590853,-127.151672,-127.430545,-127.389862,-127.282992,-127.315549,-127.314751,-127.313373,-127.310631,-127.225690,-126.604798,-127.384869,-127.383153,-127.381242,-127.377431,-127.258938,-126.022388,-124.955262
57,-117.111951,-129.987296,-127.182426,-127.581954,-127.539462,-127.431674,-127.461730,-127.470512,-127.469180,-127.466500,-127.383585,-126.776981,-127.532624,-127.530953,-127.529101,-127.525381,-127.409895,-126.214513,-125.178010
58,-117.262917,-130.380956,-127.193534,-127.730589,-127.686212,-127.577512,-127.593554,-127.623629,-127.622324,-127.619709,-127.538738,-126.945803,-127.678207,-127.676566,-127.674763,-127.671143,-127.558545,-126.402754,-125.395576
59,-117.411353,-130.772473,-127.186187,-127.876546,-127.830151,-127.720593,-127.712192,-127.774188,-127.772932,-127.770361,-127.691237,-127.111401,-127.821648,-127.820061,-127.818301,-127.814766,-127.704925,-126.587300,-125.602265
60,-117.557308,-131.161969,-127.141884,-128.019932,-127.971489,-127.861009,-127.818700,-127.922258,-127.921016,-127.918539,-127.841184,-127.273883,-127.963023,-127.961475,-127.959748,-127.956308,-127.849118,-126.768169,-125.803204
61,-117.700840,-131.549591,-126.985222,-128.160752,-128.110320,-127.998865,-127.913990,-128.067943,-128.066728,-128.064290,-127.988628,-127.433373,-128.102367,-128.100856,-128.099181,-128.095818,-127.991171,-126.945525,-125.999929
62,-117.842030,-131.935549,-126.804603,-128.299164,-128.246492,-128.134163,-127.998913,-128.211290,-128.210108,-128.207728,-128.133695,-127.589958,-128.239754,-128.238283,-128.236634,-128.233341,-128.131170,-127.119552,-126.192342
63,-117.980968,-132.320081,-126.601244,-128.435206,-128.380242,-128.267066,-128.074232,-128.352393,-128.351239,-128.348903,-128.276409,-127.743775,-128.375202,-128.373753,-128.372202,-128.368945,-128.269092,-127.290285,-126.380989
64,-118.117721,-132.703364,-126.376209,-128.568976,-128.511695,-128.397620,-128.140616,-128.491311,-128.490173,-128.487906,-128.416881,-127.894883,-128.508771,-128.507363,-128.505820,-128.502663,-128.405066,-127.457898,-126.566021
65,-118.252414,-133.085741,-126.093714,-128.700539,-128.640847,-128.525885,-128.198696,-128.628102,-128.626985,-128.624755,-128.555167,-128.043399,-128.640519,-128.639143,-128.637629,-128.634534,-128.539106,-127.622468,-126.747516
66,-118.384940,-133.466930,-125.772949,-128.829880,-128.767684,-128.651937,-128.249033,-128.762834,-128.761744,-128.759558,-128.691333,-128.189401,-128.770475,-128.769132,-128.767664,-128.764626,-128.671289,-127.784110,-126.925439
67,-118.515522,-133.847542,-125.431438,-128.957146,-128.892365,-128.775841,-128.292140,-128.895579,-128.894509,-128.892356,-128.825434,-128.332964,-128.898694,-128.897393,-128.895899,-128.892974,-128.801623,-127.942896,-127.100220
68,-118.644219,-134.227758,-125.074662,-129.082404,-129.014917,-128.897667,-128.288966,-129.026374,-129.025327,-129.023221,-128.957550,-128.474189,-129.025197,-129.023905,-129.022477,-129.019603,-128.930198,-128.098975,-127.271546
69,-118.770956,-134.607380,-124.766457,-129.205643,-129.135404,-129.017452,-128.260029,-129.155278,-129.154258,-129.152190,-129.087716,-128.613116,-129.150064,-129.148757,-129.147380,-129.144577,-129.057033,-128.252370,-127.439747
70,-118.895906,-134.986913,-124.443882,-129.326911,-129.253847,-129.135260,-128.222513,-129.282360,-129.281353,-129.279331,-129.216008,-128.749852,-129.273281,-129.272037,-129.270663,-129.267903,-129.182155,-128.403197,-127.604995
71,-119.019082,-135.366414,-124.108764,-129.446347,-129.370346,-129.251147,-128.176977,-129.407649,-129.406659,-129.404672,-129.342474,-128.884458,-129.394934,-129.393718,-129.392387,-129.389653,-129.305630,-128.551543,-127.767449
72,-119.140536,-135.746057,-123.855993,-129.563883,-129.484829,-129.365197,-128.123948,-129.531219,-129.530239,-129.528287,-129.467149,-129.017017,-129.515015,-129.513826,-129.512507,-129.509859,-129.427495,-128.697471,-127.926891
73,-119.260325,-136.126033,-123.609606,-129.679633,-129.597494,-129.477378,-128.063887,-129.653088,-129.652134,-129.650214,-129.590110,-129.147524,-129.633609,-129.632428,-129.631133,-129.628544,-129.547790,-128.841057,-128.083597
74,-119.378473,-136.506444,-123.358982,-129.793643,-129.708313,-129.587801,-127.997241,-129.773313,-129.772379,-129.770488,-129.711379,-129.276098,-129.750703,-129.749562,-129.748292,-129.745743,-129.666540,-128.982380,-128.237738
75,-119.495053,-136.887545,-123.195280,-129.905889,-129.817259,-129.696501,-127.924414,-129.891944,-129.891022,-129.889170,-129.831005,-129.402782,-129.866367,-129.865226,-129.864032,-129.861503,-129.783793,-129.121504,-128.389604
76,-119.610072,-137.269396,-123.035702,-130.016461,-129.924453,-129.803568,-127.845781,-130.009020,-130.008107,-130.006282,-129.949041,-129.527630,-129.980623,-129.979554,-129.978295,-129.975850,-129.899602,-129.258477,-128.538404
77,-119.723620,-137.652311,-122.895219,-130.125374,-130.029913,-129.908887,-127.735799,-130.124568,-130.123681,-130.121886,-130.065518,-129.650620,-130.093522,-130.092421,-130.091209,-130.088810,-130.013943,-129.393380,-128.685082
78,-119.835646,-138.036186,-122.813967,-130.232683,-130.133690,-130.012690,-127.618806,-130.238639,-130.237760,-130.236003,-130.180491,-129.772005,-130.205017,-130.203960,-130.202810,-130.200413,-130.126917,-129.526279,-128.829375
79,-119.946343,-138.421672,-122.740247,-130.334205,-130.235702,-130.114941,-127.496533,-130.351269,-130.350401,-130.348669,-130.293979,-129.891674,-130.315217,-130.314184,-130.313041,-130.310705,-130.238484,-129.657214,-128.971431
80,-120.055515,-138.808213,-122.702363,-130.410750,-130.336076,-130.215628,-127.369275,-130.462489,-130.461636,-130.459935,-130.406037,-130.009666,-130.424140,-130.423120,-130.421980,-130.419704,-130.348776,-129.779565,-129.111266
81,-120.163429,-139.196716,-122.695358,-130.461116,-130.434844,-130.314834,-127.237364,-130.572332,-130.571498,-130.569813,-130.516681,-130.126100,-130.531805,-130.530799,-130.529695,-130.527439,-130.457714,-129.898712,-129.248959
82,-120.269960,-139.586850,-122.699755,-130.486552,-130.532014,-130.412601,-127.101084,-130.680847,-130.680023,-130.678362,-130.625971,-130.240921,-130.638211,-130.637219,-130.636116,-130.633930,-130.565398,-130.016269,-129.384607
83,-120.375235,-139.979109,-122.739723,-130.488119,-130.627585,-130.508938,-126.960707,-130.788041,-130.787232,-130.785599,-130.733920,-130.354309,-130.743405,-130.742451,-130.741370,-130.739224,-130.671816,-130.132259,-129.518161
84,-120.479237,-140.375202,-122.795020,-130.466755,-130.721610,-130.603904,-126.839044,-130.893969,-130.893166,-130.891559,-130.840574,-130.466123,-130.847472,-130.846490,-130.845431,-130.843240,-130.777007,-130.246745,-129.649799
