1200MHz / Lb(0.50) dB
,h2(m),1000,1000,1000,1000,1000,10000,10000,10000,10000,10000,10000,20000,20000,20000,20000,20000,20000,20000
,h1(m),1.5,15,30,60,1000,1.5,15,30,60,1000,10000,1.5,15,30,60,1000,10000,20000
D (km),FSL
0,-94.020586,-94.024677,-93.906379,-93.773021,-93.500007,0.000000,-114.046608,-114.034811,-114.021685,-113.995373,-113.128236,0.000000,-120.067859,-120.061932,-120.055343,-120.042149,-119.618458,-114.033191,0.000000
1,-97.037684,-97.043654,-96.985027,-96.919759,-96.789347,-94.038732,-114.089969,-114.078290,-114.065294,-114.039246,-113.181669,-94.046725,-120.078755,-120.072843,-120.066270,-120.053108,-119.630525,-114.076602,-94.060383
2,-101.020968,-101.030662,-101.007561,-100.981606,-100.930987,-100.064042,-114.217544,-114.206195,-114.193571,-114.168288,-113.338176,-100.067192,-120.111288,-120.105420,-120.098895,-120.085827,-119.666527,-114.204303,-100.080685
3,-104.032855,-104.046747,-104.035082,-104.022292,-103.996994,-103.590460,-114.422196,-114.411357,-114.399325,-114.375190,-113.587105,-103.589039,-120.164969,-120.159178,-120.152731,-120.139825,-119.725875,-114.409145,-103.602727
4,-106.337939,-106.356183,-106.349272,-106.341814,-106.327034,-106.093710,-114.693465,-114.683273,-114.671974,-114.649304,-113.913302,-106.087827,-120.239038,-120.233334,-120.227002,-120.214307,-119.807633,-114.680566,-106.101527
5,-108.183351,-108.206014,-108.201637,-108.196724,-108.187171,-108.036415,-115.019125,-115.009658,-114.999168,-114.978120,-114.299722,-108.026122,-120.332453,-120.326874,-120.320671,-120.308243,-119.910539,-115.006357,-108.039647
6,-109.715911,-109.743027,-109.739836,-109.736369,-109.729606,-109.624516,-115.386669,-115.377981,-115.368317,-115.349002,-114.729648,-109.609741,-120.443971,-120.438534,-120.432476,-120.420375,-120.033095,-115.373996,-109.623303
7,-111.023669,-111.055257,-111.052925,-111.050408,-111.045439,-110.967913,-115.784495,-115.776563,-115.767734,-115.750106,-115.188454,-110.948661,-120.572195,-120.566912,-120.561036,-120.549266,-120.173625,-115.771753,-110.962320
8,-112.163157,-112.199226,-112.197422,-112.195555,-112.191665,-112.132292,-116.202500,-116.195285,-116.187267,-116.171249,-115.663945,-112.108523,-120.715591,-120.710477,-120.704792,-120.693404,-120.330338,-116.189593,-112.122183
9,-113.172232,-113.212789,-113.211409,-113.209845,-113.206775,-113.159754,-116.632336,-116.625766,-116.618511,-116.603961,-116.146680,-113.131589,-120.872614,-120.867673,-120.862180,-120.851205,-120.501370,-116.619089,-113.145162
10,-114.077368,-114.122414,-114.121286,-114.119991,-114.117557,-114.079325,-117.067338,-117.061404,-117.054843,-117.041640,-116.629593,-114.046701,-121.041650,-121.036897,-121.031610,-121.021050,-120.684894,-117.053679,-114.060389
11,-114.897776,-114.947312,-114.946332,-114.945329,-114.943276,-114.911616,-117.502488,-117.497085,-117.491127,-117.479221,-117.107589,-114.874588,-121.221168,-121.216607,-121.211528,-121.201375,-120.879125,-117.488289,-114.888192
12,-115.647840,-115.701862,-115.701080,-115.700206,-115.698519,-115.671796,-117.933994,-117.929107,-117.923673,-117.912876,-117.577165,-115.630347,-121.409636,-121.405267,-121.400406,-121.390669,-121.082366,-117.919153,-115.643998
13,-116.338712,-116.397217,-116.396524,-116.395797,-116.394347,-116.371409,-118.359108,-118.354700,-118.349788,-118.339996,-118.035962,-116.325547,-121.605657,-121.601479,-121.596835,-121.587518,-121.293016,-118.343534,-116.339196
14,-116.978857,-117.041838,-117.041318,-117.040656,-117.039418,-117.019464,-118.776037,-118.772034,-118.767561,-118.758599,-118.482618,-116.969255,-121.807922,-121.803919,-121.799474,-121.790570,-121.509621,-118.759616,-116.982927
15,-117.575303,-117.642750,-117.642277,-117.641720,-117.640677,-117.623039,-119.183583,-119.179860,-119.175755,-119.167536,-118.916252,-117.568500,-122.015178,-122.011360,-122.007109,-121.998624,-121.730878,-119.166168,-117.582157
16,-118.133569,-118.205472,-118.205049,-118.204603,-118.203616,-118.187943,-119.580691,-119.577426,-119.573561,-119.566103,-119.336551,-118.129040,-122.226357,-122.222707,-122.218660,-122.210556,-121.955567,-119.562351,-118.142722
17,-118.658198,-118.734541,-118.734214,-118.733803,-118.732963,-118.718850,-119.967163,-119.964117,-119.960725,-119.953731,-119.743512,-118.655613,-122.440438,-122.436971,-122.433109,-122.425393,-122.182666,-119.947843,-118.669324
18,-119.153062,-119.233824,-119.233535,-119.233179,-119.232459,-119.219583,-120.342886,-120.340060,-120.336898,-120.330628,-120.137225,-119.152092,-122.656572,-122.653270,-122.649590,-122.642241,-122.411246,-120.322436,-119.165753
19,-119.621354,-119.706512,-119.706228,-119.705935,-119.705298,-119.693481,-120.707784,-120.705152,-120.702230,-120.696371,-120.518183,-119.621670,-122.873971,-122.870827,-122.867317,-122.860325,-122.640535,-120.686173,-119.635353
20,-120.065688,-120.155207,-120.155092,-120.154727,-120.154167,-120.143260,-121.062076,-121.059534,-121.057093,-121.051471,-120.886562,-120.067176,-123.091965,-123.088965,-123.085628,-123.078953,-122.869804,-121.039202,-120.080889
21,-120.488456,-120.582294,-120.582166,-120.581951,-120.581419,-120.571276,-121.405623,-121.403512,-121.401024,-121.396002,-121.243025,-120.490952,-123.309980,-123.307108,-123.303925,-123.297561,-123.098483,-121.381805,-120.504684
22,-120.891671,-120.989769,-120.989677,-120.989479,-120.989016,-120.979523,-121.739467,-121.737355,-121.735001,-121.730351,-121.588022,-120.894997,-123.527471,-123.524734,-123.521711,-123.515646,-123.326082,-121.714239,-120.908701
23,-121.277009,-121.379287,-121.379253,-121.379057,-121.378623,-121.369809,-122.063359,-122.061402,-122.059226,-122.054843,-121.922017,-121.281071,-123.744032,-123.741439,-123.738538,-123.732765,-123.552193,-122.036857,-121.294794
24,-121.646009,-121.752353,-121.752392,-121.752211,-121.751781,-121.743647,-122.377824,-122.375997,-122.373949,-122.369882,-122.245641,-121.650728,-123.959292,-123.956807,-123.954061,-123.948551,-123.776451,-122.350031,-121.664480
25,-122.000018,-122.110267,-122.110317,-122.110178,-122.109720,-122.102360,-122.683268,-122.681548,-122.679629,-122.675804,-122.559222,-122.005242,-124.172982,-124.170592,-124.167965,-124.162718,-123.998589,-122.654162,-122.019020
26,-122.340145,-122.454057,-122.454195,-122.454038,-122.453500,-122.447158,-122.980034,-122.978423,-122.976610,-122.973007,-122.863254,-122.345856,-124.384757,-124.382477,-124.379983,-124.374948,-124.218329,-122.949591,-122.359670
27,-122.667493,-122.784704,-122.784910,-122.784751,-122.784044,-122.779040,-123.268494,-123.266965,-123.265245,-123.261856,-123.158336,-122.673637,-124.594476,-124.592325,-124.589925,-124.585137,-124.435542,-123.236667,-122.687460
28,-122.982971,-123.102938,-123.103231,-123.103017,-123.102186,-123.098994,-123.548984,-123.547543,-123.545923,-123.542739,-123.444866,-122.989504,-124.801968,-124.799881,-124.797624,-124.793005,-124.650085,-123.515821,-123.003324
29,-123.287396,-123.409378,-123.409852,-123.409642,-123.408824,-123.407857,-123.821879,-123.820504,-123.818992,-123.815967,-123.723192,-123.294237,-125.007076,-125.005103,-125.002799,-124.998483,-124.861757,-123.787329,-123.308123
30,-123.581508,-123.704706,-123.705517,-123.705495,-123.705081,-123.706314,-124.087515,-124.086213,-124.084771,-124.081872,-123.993785,-123.588675,-125.209677,-125.207782,-125.205731,-125.201454,-125.070568,-124.051544,-123.602570
31,-123.866018,-123.989927,-123.991332,-123.991658,-123.991792,-123.995136,-124.346231,-124.344977,-124.343580,-124.340842,-124.256966,-123.873360,-125.409781,-125.407958,-125.405901,-125.401738,-125.276435,-124.308832,-123.887353
32,-124.141516,-124.266091,-124.268180,-124.268925,-124.269661,-124.274881,-124.598247,-124.597049,-124.595723,-124.593131,-124.513093,-124.149199,-125.607100,-125.605343,-125.603404,-125.599546,-125.479397,-124.559447,-124.163079
33,-124.408535,-124.533984,-124.536760,-124.537922,-124.539168,-124.546097,-124.843909,-124.842794,-124.841530,-124.839051,-124.762538,-124.416531,-125.801801,-125.800175,-125.798281,-125.794549,-125.679203,-124.803687,-124.430351
34,-124.667611,-124.794157,-124.797549,-124.799063,-124.800771,-124.809318,-125.083545,-125.082449,-125.081259,-125.078858,-125.005551,-124.675591,-125.993845,-125.992205,-125.990422,-125.986952,-125.876026,-125.041872,-124.689626
35,-124.919181,-125.046977,-125.050954,-125.052787,-125.054884,-125.064993,-125.317316,-125.316286,-125.315161,-125.312856,-125.242507,-124.927490,-126.183134,-126.181659,-126.179910,-126.176513,-126.069923,-125.274201,-124.941370
36,-125.163666,-125.292789,-125.297311,-125.299448,-125.301916,-125.313546,-125.545548,-125.544553,-125.543447,-125.541258,-125.473608,-125.172008,-126.369725,-126.368264,-126.366661,-126.363326,-126.260732,-125.501016,-125.186047
37,-125.401475,-125.531950,-125.537017,-125.539433,-125.542246,-125.555375,-125.768443,-125.767494,-125.766414,-125.764323,-125.699145,-125.410015,-126.553615,-126.552241,-126.550546,-126.547344,-126.448789,-125.722419,-125.423992
38,-125.632949,-125.764761,-125.770324,-125.773026,-125.776164,-125.790825,-125.986240,-125.985325,-125.984323,-125.982268,-125.919353,-125.641443,-126.734840,-126.733472,-126.731879,-126.728806,-126.633692,-125.938745,-125.655607
39,-125.858398,-125.991504,-125.997602,-126.000572,-126.004052,-126.020238,-126.199148,-126.198234,-126.197257,-126.195298,-126.134496,-125.867050,-126.913315,-126.911991,-126.910501,-126.907534,-126.815780,-126.150165,-125.881187
40,-126.078177,-126.212514,-126.219111,-126.222345,-126.226169,-126.243934,-126.407330,-126.406467,-126.405526,-126.403619,-126.344756,-126.086916,-127.089200,-127.087918,-127.086468,-127.083623,-126.994991,-126.356869,-126.101076
41,-126.292535,-126.428028,-126.435150,-126.438686,-126.442796,-126.462113,-126.611031,-126.610185,-126.609265,-126.607451,-126.550349,-126.301335,-127.262439,-127.261197,-127.259874,-127.257085,-127.171374,-126.559065,-126.315511
42,-126.501727,-126.638289,-126.645933,-126.649725,-126.654231,-126.675114,-126.810371,-126.809572,-126.808684,-126.806892,-126.751438,-126.510730,-127.433159,-127.431958,-127.430604,-127.427959,-127.345052,-126.756964,-126.524791
43,-126.705987,-126.843522,-126.851723,-126.855792,-126.860624,-126.883172,-127.005562,-127.004797,-127.003903,-127.002219,-126.948248,-126.714875,-127.601323,-127.600161,-127.598890,-127.596342,-127.516051,-126.950651,-126.729155
44,-126.905572,-127.043978,-127.052738,-127.057089,-127.062311,-127.086515,-127.196771,-127.196024,-127.195180,-127.193506,-127.140945,-126.914497,-127.766985,-127.765886,-127.764615,-127.762105,-127.684370,-127.140575,-126.928803
45,-127.100665,-127.239835,-127.249173,-127.253822,-127.259366,-127.285324,-127.384132,-127.383411,-127.382578,-127.381003,-127.329682,-127.109560,-127.930229,-127.929096,-127.927922,-127.925522,-127.850131,-127.326240,-127.124006
46,-127.291473,-127.431297,-127.441237,-127.446173,-127.452091,-127.479814,-127.567791,-127.567079,-127.566315,-127.564685,-127.514605,-127.300436,-128.091047,-128.089990,-128.088815,-128.086462,-128.013286,-127.508273,-127.314834
47,-127.478199,-127.618561,-127.629094,-127.634336,-127.640638,-127.670166,-127.747879,-127.747184,-127.746410,-127.744852,-127.695881,-127.487152,-128.249524,-128.248494,-128.247316,-128.245063,-128.174002,-127.686924,-127.501594
48,-127.660992,-127.801773,-127.812912,-127.818485,-127.825168,-127.856559,-127.924545,-127.923861,-127.923111,-127.921590,-127.873633,-127.669978,-128.405696,-128.404680,-128.403564,-128.401346,-128.332274,-127.862090,-127.684421
49,-127.840000,-127.981078,-127.992874,-127.998773,-128.005859,-128.039145,-128.097890,-128.097224,-128.096465,-128.095012,-128.047965,-127.848957,-128.559578,-128.558603,-128.557524,-128.555355,-128.488163,-128.034027,-127.863522
50,-128.015405,-128.156656,-128.169117,-128.175344,-128.182835,-128.218102,-128.268040,-128.267385,-128.266666,-128.265201,-128.219056,-128.024356,-128.711259,-128.710312,-128.709257,-128.707151,-128.641724,-128.202536,-128.038908
51,-128.187347,-128.328646,-128.341780,-128.348362,-128.356299,-128.393524,-128.435119,-128.434482,-128.433756,-128.432336,-128.386982,-128.196256,-128.860769,-128.859848,-128.858820,-128.856776,-128.793028,-128.368068,-128.210881
52,-128.355951,-128.497167,-128.511015,-128.517924,-128.526261,-128.565593,-128.599205,-128.598580,-128.597881,-128.596479,-128.551893,-128.364841,-129.008154,-129.007255,-129.006250,-129.004267,-128.942111,-128.530617,-128.379524
53,-128.521351,-128.662354,-128.676891,-128.684235,-128.692977,-128.734450,-128.760425,-128.759803,-128.759125,-128.757741,-128.713817,-128.530195,-129.153453,-129.152585,-129.151612,-129.149663,-129.089020,-128.690370,-128.544917
54,-128.683612,-128.824267,-128.839574,-128.847243,-128.856464,-128.900100,-128.918859,-128.918261,-128.917576,-128.916227,-128.872927,-128.692450,-129.296730,-129.295879,-129.294938,-129.293025,-129.233810,-128.847521,-128.707220
55,-128.842964,-128.983139,-128.999200,-129.007232,-129.016942,-129.062778,-129.074607,-129.074015,-129.073352,-129.072020,-129.029301,-128.851733,-129.438016,-129.437190,-129.436260,-129.434400,-129.376542,-129.001433,-128.866859
56,-128.999412,-129.138967,-129.155795,-129.164243,-129.174415,-129.222564,-129.227768,-129.227187,-129.226524,-129.225207,-129.183028,-129.008139,-129.577371,-129.576556,-129.575646,-129.573834,-129.517245,-129.153042,-129.022971
57,-129.153124,-129.291923,-129.309510,-129.318376,-129.329053,-129.379525,-129.378392,-129.377828,-129.377185,-129.375882,-129.334186,-129.161772,-129.714808,-129.714012,-129.713131,-129.711353,-129.655978,-129.302086,-129.176732
58,-129.304113,-129.505823,-129.460480,-129.469729,-129.480915,-129.533787,-129.526589,-129.526032,-129.525394,-129.524108,-129.482866,-129.312724,-129.850396,-129.849605,-129.848747,-129.847014,-129.792795,-129.448702,-129.327626
59,-129.452552,-129.855659,-129.608704,-129.618396,-129.630041,-129.685436,-129.672437,-129.671878,-129.671266,-129.669979,-129.629144,-129.461100,-129.984155,-129.983394,-129.982551,-129.980850,-129.927717,-129.593033,-129.476121
60,-129.598493,-130.203398,-129.754391,-129.764485,-129.776644,-129.834560,-129.815981,-129.815424,-129.814804,-129.813568,-129.773108,-129.606974,-130.116145,-130.115399,-130.114565,-130.112906,-130.060811,-129.735021,-129.622191
61,-129.742044,-130.549235,-129.897425,-129.907995,-129.920822,-129.981260,-129.957306,-129.956765,-129.956151,-129.954913,-129.914799,-129.750436,-130.246389,-130.245660,-130.244851,-130.243221,-130.192107,-129.874765,-129.765805
62,-129.883237,-130.893197,-130.038039,-130.049088,-130.062412,-130.125533,-130.096478,-130.095942,-130.095340,-130.094119,-130.054330,-129.891550,-130.374952,-130.374240,-130.373434,-130.371825,-130.321679,-130.012395,-129.906837
63,-130.022162,-131.235460,-130.176304,-130.187800,-130.201662,-130.267541,-130.233573,-130.233038,-130.232446,-130.231228,-130.191714,-130.030419,-130.501840,-130.501129,-130.500397,-130.498778,-130.449491,-130.147900,-130.045668
64,-130.158920,-131.576238,-130.312233,-130.324227,-130.338698,-130.407328,-130.368627,-130.368107,-130.367512,-130.366326,-130.327054,-130.167081,-130.627101,-130.626410,-130.625666,-130.624100,-130.575656,-130.281392,-130.182407
65,-130.293554,-131.915605,-130.445917,-130.458440,-130.473517,-130.544950,-130.501718,-130.501200,-130.500608,-130.499421,-130.460398,-130.301627,-130.750784,-130.750106,-130.749367,-130.747823,-130.700179,-130.412906,-130.317068
66,-130.426131,-132.253709,-130.577421,-130.590415,-130.606103,-130.680482,-130.632899,-130.632378,-130.631794,-130.630616,-130.591801,-130.434114,-130.872909,-130.872245,-130.871532,-130.870001,-130.823122,-130.542509,-130.449569
67,-130.556731,-132.590735,-130.706861,-130.720307,-130.736623,-130.813984,-130.762221,-130.761707,-130.761126,-130.759947,-130.721311,-130.564596,-130.993521,-130.992881,-130.992122,-130.990664,-130.944485,-130.670227,-130.580258
68,-130.685376,-132.926727,-130.834130,-130.848183,-130.865104,-130.945527,-130.889726,-130.889219,-130.888643,-130.887477,-130.849001,-130.693151,-131.112636,-131.111984,-131.111272,-131.109824,-131.064344,-130.796177,-130.708810
69,-130.812148,-133.261895,-130.959426,-130.974033,-130.991613,-131.075142,-131.015472,-131.014966,-131.014401,-131.013240,-130.974899,-130.819804,-131.230321,-131.229639,-131.228957,-131.227542,-131.182712,-130.920335,-130.835479
70,-130.937102,-133.596383,-131.082755,-131.097904,-131.116174,-131.202892,-131.139513,-131.139013,-131.138445,-131.137298,-131.099074,-130.944643,-131.346556,-131.345922,-131.345223,-131.343815,-131.299604,-131.042781,-130.960377
71,-131.060279,-133.930310,-131.204219,-131.219944,-131.238895,-131.328831,-131.261893,-131.261384,-131.260818,-131.259675,-131.221568,-131.067711,-131.461422,-131.460799,-131.460124,-131.458705,-131.415078,-131.163569,-131.083619
72,-131.181734,-134.263836,-131.323851,-131.340082,-131.359699,-131.453042,-131.382633,-131.382147,-131.381577,-131.380438,-131.342411,-131.189078,-131.574900,-131.574288,-131.573609,-131.572240,-131.529162,-131.282728,-131.204970
73,-131.301524,-134.597135,-131.441545,-131.458438,-131.478798,-131.575488,-131.501806,-131.501319,-131.500759,-131.499623,-131.461672,-131.308721,-131.687071,-131.686452,-131.685780,-131.684436,-131.641888,-131.400302,-131.324644
74,-131.419678,-134.930310,-131.557581,-131.575064,-131.596164,-131.696278,-131.619435,-131.618950,-131.618395,-131.617261,-131.579370,-131.426747,-131.797915,-131.797321,-131.796657,-131.795319,-131.753272,-131.516339,-131.442759
75,-131.536249,-135.263549,-131.671863,-131.689937,-131.711772,-131.815449,-131.735565,-131.735086,-131.734531,-131.733406,-131.695547,-131.543186,-131.907496,-131.906886,-131.906284,-131.904934,-131.863356,-131.630877,-131.559542
76,-131.651276,-135.596993,-131.784458,-131.803154,-131.825753,-131.933087,-131.850244,-131.849765,-131.849205,-131.848079,-131.810253,-131.658078,-132.015830,-132.015279,-132.014594,-132.013297,-131.972186,-131.743936,-131.674282
77,-131.764796,-135.930798,-131.895421,-131.914739,-131.938128,-132.049068,-131.963483,-131.963008,-131.962460,-131.961339,-131.923515,-131.771390,-132.122961,-132.122365,-132.121713,-132.120430,-132.079730,-131.855571,-131.787777
78,-131.876852,-136.265140,-132.004772,-132.024750,-132.048963,-132.163633,-132.075341,-132.074863,-132.074310,-132.073201,-132.035381,-131.883362,-132.228839,-132.228274,-132.227667,-132.226358,-132.186083,-131.965821,-131.899746
79,-131.987469,-136.600154,-132.112534,-132.133186,-132.158163,-132.276741,-132.185842,-132.185363,-132.184809,-132.183699,-132.145869,-131.993878,-132.333568,-132.333013,-132.332400,-132.331121,-132.291200,-132.074707,-132.010327
80,-132.096745,-136.936202,-132.218798,-132.240100,-132.265879,-132.388372,-132.295012,-132.294537,-132.293985,-132.292881,-132.255028,-132.102958,-132.437160,-132.436605,-132.435981,-132.434735,-132.395206,-132.182261,-132.119503
81,-132.204627,-137.273200,-132.323540,-132.345543,-132.372145,-132.498612,-132.402881,-132.402414,-132.401869,-132.400757,-132.362870,-132.210718,-132.539629,-132.539075,-132.538474,-132.537219,-132.498018,-132.288526,-132.227307
82,-132.311135,-137.611281,-132.426801,-132.449543,-132.476978,-132.607501,-132.509508,-132.509040,-132.508494,-132.507381,-132.469454,-132.317092,-132.640969,-132.640418,-132.639803,-132.638592,-132.599726,-132.393528,-132.333845
83,-132.416427,-137.951054,-132.528645,-132.552060,-132.580401,-132.715045,-132.614885,-132.614420,-132.613876,-132.612771,-132.574788,-132.422250,-132.741225,-132.740700,-132.740094,-132.738897,-132.700318,-132.497283,-132.439002
84,-132.520469,-138.292512,-132.629055,-132.653242,-132.682423,-132.821301,-132.719066,-132.718607,-132.718058,-132.716954,-132.678914,-132.526046,-132.840477,-132.839911,-132.839315,-132.838046,-132.799825,-132.599839,-132.542955
