125MHz / Lb(0.50) dB
,h2(m),1000,1000,1000,1000,1000,10000,10000,10000,10000,10000,10000,20000,20000,20000,20000,20000,20000,20000
,h1(m),1.5,15,30,60,1000,1.5,15,30,60,1000,10000,1.5,15,30,60,1000,10000,20000
D (km),FSL
0,-74.375162,-74.375021,-74.256780,-74.123486,-73.850599,0.000000,-94.387418,-94.375678,-94.362616,-94.336432,-93.473278,0.000000,-100.408669,-100.402800,-100.396274,-100.383207,-99.963500,-94.387766,0.000000
1,-77.392260,-77.392241,-77.333654,-77.268431,-77.138107,-74.389070,-94.430711,-94.419088,-94.406157,-94.380236,-93.526652,-74.401300,-100.419548,-100.413694,-100.407184,-100.394150,-99.975553,-94.431177,-74.414959
2,-81.375573,-81.375796,-81.352690,-81.326762,-81.276198,-80.410144,-94.558077,-94.546787,-94.534227,-94.509071,-93.682982,-80.421768,-100.452029,-100.446218,-100.439757,-100.426817,-100.011514,-94.558879,-80.435260
3,-84.387323,-84.387817,-84.376278,-84.363508,-84.338248,-83.932328,-94.762388,-94.751607,-94.739639,-94.715634,-93.931620,-83.943614,-100.505622,-100.499888,-100.493506,-100.480728,-100.070795,-94.763720,-83.957303
4,-86.692441,-86.693216,-86.686392,-86.678949,-86.664199,-86.431346,-95.033186,-95.023053,-95.011820,-94.989281,-94.257420,-86.442402,-100.579567,-100.573922,-100.567654,-100.555088,-100.152459,-95.035142,-86.456103
5,-88.537980,-88.539040,-88.534620,-88.529719,-88.520189,-88.369822,-95.358258,-95.348852,-95.338428,-95.317513,-94.643346,-88.380699,-100.672824,-100.667304,-100.661166,-100.648868,-100.255244,-95.360932,-88.394223
6,-90.070489,-90.071834,-90.068649,-90.065192,-90.058449,-89.953696,-95.725108,-95.716481,-95.706885,-95.687706,-95.072694,-89.964317,-100.784150,-100.778772,-100.772780,-100.760809,-100.377653,-95.728571,-89.977879
7,-91.378201,-91.379832,-91.377551,-91.375042,-91.370089,-91.292870,-96.122145,-96.114275,-96.105516,-96.088028,-95.530847,-91.303238,-100.912148,-100.906925,-100.901115,-100.889478,-100.518010,-96.126328,-91.316896
8,-92.517767,-93.369734,-92.517849,-92.515989,-92.512113,-92.453027,-96.539278,-96.532128,-96.524181,-96.508306,-96.005622,-92.463100,-101.055285,-101.050231,-101.044613,-101.033360,-100.674526,-96.544169,-92.476759
9,-93.526828,-95.292715,-93.527631,-93.526072,-93.523014,-93.476271,-96.968172,-96.961668,-96.954486,-96.940083,-96.487586,-93.486167,-101.212017,-101.207138,-101.201713,-101.190873,-100.845336,-96.973664,-93.499738
10,-94.431892,-97.035441,-94.433297,-94.432007,-94.429584,-94.391627,-97.402186,-97.396304,-97.389819,-97.376768,-96.969682,-94.401279,-101.380732,-101.376042,-101.370824,-101.360402,-101.028617,-97.408254,-94.414965
11,-95.252323,-98.627828,-95.254131,-95.253131,-95.251087,-95.219706,-97.836247,-97.830931,-97.825050,-97.813302,-97.446823,-95.229168,-101.559901,-101.555403,-101.550394,-101.540382,-101.222583,-97.842864,-95.242769
12,-96.002425,-100.093173,-96.004665,-96.003793,-96.002113,-95.975678,-98.266663,-98.261853,-98.256500,-98.245865,-97.915511,-95.984928,-101.747992,-101.743687,-101.738898,-101.729303,-101.425538,-98.273729,-95.998575
13,-96.693283,-101.450177,-96.695894,-96.695168,-96.693722,-96.671086,-98.690650,-98.686309,-98.681481,-98.671856,-98.373393,-96.680128,-101.943611,-101.939498,-101.934927,-101.925756,-101.635883,-98.698109,-96.693774
14,-97.333413,-102.713545,-97.336474,-97.335811,-97.334576,-97.314940,-99.106421,-99.102473,-99.098087,-99.089299,-98.819110,-97.323837,-102.145449,-102.141513,-102.137142,-102.128387,-101.852166,-99.114191,-97.337505
15,-97.929878,-103.895780,-97.933220,-97.932661,-97.931619,-97.914318,-99.512656,-99.509100,-99.505085,-99.497047,-99.251786,-97.923084,-102.352256,-102.348507,-102.344331,-102.335998,-102.073085,-99.520744,-97.936735
16,-98.488145,-105.006671,-98.491782,-98.491332,-98.490344,-98.475029,-99.908617,-99.905442,-99.901671,-99.894400,-99.671109,-98.483626,-102.562966,-102.559386,-102.555416,-102.547466,-102.297420,-99.916926,-98.497301
17,-99.012774,-106.054500,-99.016740,-99.016323,-99.015480,-99.001747,-100.293896,-100.290890,-100.287594,-100.280794,-100.077080,-99.010200,-102.776559,-102.773162,-102.769380,-102.761821,-102.524150,-100.302419,-99.023903
18,-99.507637,-107.046386,-99.511860,-99.511496,-99.510771,-99.498296,-100.668336,-100.665570,-100.662507,-100.656438,-100.469790,-99.506681,-102.992185,-102.988956,-102.985357,-102.978169,-102.752349,-100.677011,-99.520333
19,-99.975925,-107.988238,-99.980360,-99.980055,-99.979409,-99.968013,-101.031912,-101.029383,-101.026564,-101.020912,-100.849734,-99.976261,-103.209066,-103.205991,-103.202564,-103.195737,-102.981246,-101.040749,-99.989934
20,-100.420248,-108.884911,-100.425038,-100.424659,-100.424088,-100.413616,-101.384820,-101.382471,-101.380135,-101.374729,-101.217088,-100.421769,-103.426524,-103.423593,-103.420340,-103.413834,-103.210112,-101.393777,-100.435470
21,-100.843033,-109.740974,-100.847940,-100.847706,-100.847160,-100.837460,-101.727301,-101.725143,-101.722764,-101.717965,-101.572519,-100.845547,-103.643966,-103.641185,-103.638089,-103.631897,-103.438376,-101.736381,-100.859266
22,-101.246233,-110.560102,-101.251296,-101.251075,-101.250596,-101.241539,-102.059664,-102.057667,-102.055428,-102.051007,-101.916474,-101.249595,-103.860892,-103.858247,-103.855312,-103.849424,-103.665552,-102.068815,-101.263285
23,-101.631630,-111.345673,-101.636750,-101.636517,-101.636068,-101.627663,-102.382249,-102.380387,-102.378328,-102.374183,-102.249423,-101.635670,-104.076889,-104.074377,-104.071566,-104.065973,-103.891231,-102.391433,-101.649378
24,-102.000582,-112.100235,-102.005754,-102.005570,-102.005129,-101.997343,-102.695374,-102.693645,-102.691718,-102.687895,-102.571992,-102.005330,-104.291574,-104.289158,-104.286505,-104.281180,-104.115050,-102.704606,-102.019065
25,-102.354575,-112.826623,-102.359685,-102.359487,-102.359028,-102.351903,-102.999470,-102.997849,-102.996056,-102.992483,-102.884513,-102.359847,-104.504616,-104.502346,-104.499813,-104.494756,-104.336741,-103.008738,-102.373606
26,-102.694717,-113.526910,-102.699580,-102.699375,-102.698859,-102.692552,-103.294880,-103.293371,-103.291687,-103.288344,-103.187481,-102.700463,-104.715810,-104.713625,-104.711227,-104.706387,-104.556027,-103.304167,-102.714257
27,-103.022081,-114.203089,-103.026426,-103.026233,-103.025586,-103.020292,-103.581947,-103.580552,-103.578966,-103.575845,-103.481493,-103.028248,-104.924914,-104.922858,-104.920558,-104.915967,-104.772780,-103.591243,-103.042048
28,-103.337546,-114.856737,-103.341065,-103.340815,-103.340074,-103.336108,-103.861071,-103.859764,-103.858281,-103.855372,-103.766949,-103.344118,-105.131783,-105.129791,-105.127636,-105.123219,-104.986858,-103.870397,-103.357914
29,-103.641972,-115.489398,-103.644219,-103.643951,-103.643189,-103.640838,-104.132595,-104.131352,-104.129981,-104.127240,-104.044196,-103.648855,-105.336229,-105.334384,-105.332183,-105.328073,-105.198059,-104.141904,-103.662714
30,-103.936083,-116.102446,-103.936619,-103.936459,-103.935956,-103.935168,-104.396855,-104.395683,-104.394386,-104.391779,-104.313707,-103.943295,-105.538223,-105.536425,-105.534480,-105.530415,-105.406395,-104.406120,-103.957162
31,-104.220594,-116.697472,-104.219258,-104.219304,-104.219144,-104.219868,-104.654157,-104.653064,-104.651816,-104.649377,-104.575804,-104.227985,-105.737585,-105.735957,-105.734008,-105.730062,-105.611782,-104.663408,-104.241946
32,-104.496084,-117.275915,-104.492905,-104.493209,-104.493445,-104.495496,-104.904787,-104.903748,-104.902575,-104.900290,-104.830841,-104.503827,-105.934388,-105.932693,-105.930864,-105.927227,-105.814259,-104.914023,-104.517673
33,-104.763124,-117.839063,-104.758223,-104.758789,-104.759352,-104.762602,-105.149077,-105.148100,-105.146993,-105.144830,-105.079194,-104.771164,-106.128399,-106.126870,-106.125088,-106.121582,-106.013577,-105.158263,-104.784946
34,-105.022182,-118.387845,-105.015697,-105.016477,-105.017337,-105.021717,-105.387282,-105.386359,-105.385329,-105.383252,-105.321112,-105.030228,-106.319765,-106.318239,-106.316571,-106.313331,-106.209908,-105.396448,-105.044223
35,-105.273750,-118.923193,-105.265756,-105.266728,-105.267829,-105.273293,-105.619671,-105.618794,-105.617834,-105.615861,-105.556969,-105.282131,-106.508407,-106.507028,-106.505396,-106.502234,-106.403310,-105.628777,-105.295969
36,-105.518241,-119.445876,-105.508750,-105.509910,-105.511243,-105.517752,-105.846483,-105.845657,-105.844719,-105.842871,-105.786969,-105.526653,-106.694291,-106.692963,-106.691480,-106.688385,-106.593620,-105.855592,-105.540647
37,-105.756050,-119.956645,-105.745094,-105.746420,-105.747965,-105.755493,-106.067976,-106.067188,-106.066282,-106.064539,-106.011402,-105.764665,-106.877526,-106.876266,-106.874693,-106.871737,-106.781176,-106.076995,-105.778594
38,-105.987525,-120.456168,-105.975050,-105.976549,-105.978288,-105.986862,-106.284347,-106.283608,-106.282783,-106.281085,-106.230504,-105.996098,-107.058032,-107.056819,-107.055351,-107.052528,-106.965574,-106.293321,-106.010211
39,-106.212974,-120.945044,-106.198991,-106.200647,-106.202597,-106.212199,-106.495824,-106.495101,-106.494306,-106.492712,-106.444537,-106.221710,-107.235867,-107.234656,-107.233293,-107.230580,-107.147155,-106.504741,-106.235793
40,-106.432752,-121.423983,-106.417183,-106.418992,-106.421154,-106.431825,-106.702615,-106.701916,-106.701160,-106.699626,-106.653686,-106.441581,-107.411045,-107.409897,-107.408576,-107.405992,-107.325857,-106.711445,-106.455683
41,-106.647110,-121.893477,-106.629929,-106.631927,-106.634242,-106.645941,-106.904879,-106.904211,-106.903482,-106.902048,-106.858165,-106.656006,-107.583639,-107.582487,-107.581295,-107.578772,-107.501727,-106.913641,-106.670120
42,-106.856302,-122.354034,-106.837446,-106.839584,-106.842158,-106.854885,-107.102801,-107.102174,-107.101480,-107.100077,-107.058137,-106.865406,-107.753623,-107.752555,-107.751336,-107.748961,-107.674891,-107.111541,-106.879402
43,-107.060566,-122.806135,-107.039998,-107.042294,-107.045056,-107.058893,-107.296572,-107.295970,-107.295275,-107.293989,-107.253829,-107.069557,-107.921105,-107.920063,-107.918929,-107.916657,-107.845373,-107.305227,-107.083768
44,-107.260143,-123.250270,-107.237808,-107.240262,-107.243270,-107.258192,-107.486335,-107.485766,-107.485125,-107.483857,-107.445404,-107.269185,-108.086069,-108.085089,-108.083958,-108.081729,-108.013175,-107.495151,-107.283418
45,-107.455241,-123.686867,-107.431070,-107.433689,-107.436879,-107.452963,-107.672270,-107.671719,-107.671093,-107.669932,-107.633017,-107.464254,-108.248588,-108.247599,-108.246567,-108.244452,-108.178415,-107.680817,-107.478624
46,-107.646055,-124.116326,-107.619983,-107.622770,-107.626181,-107.643422,-107.854476,-107.853951,-107.853397,-107.852190,-107.816815,-107.655137,-108.408714,-108.407788,-108.406758,-108.404696,-108.341047,-107.862850,-107.669453
47,-107.832813,-124.539131,-107.804716,-107.807691,-107.811330,-107.829750,-108.033127,-108.032616,-108.032057,-108.030930,-107.996962,-107.841859,-108.566472,-108.565586,-108.564555,-108.562598,-108.501239,-108.041501,-107.856216
48,-108.015556,-124.955339,-107.985471,-107.988629,-107.992489,-108.012126,-108.208339,-108.207851,-108.207319,-108.206238,-108.173583,-108.024691,-108.721921,-108.721062,-108.720097,-108.718180,-108.658985,-108.216667,-108.039045
49,-108.194570,-125.365575,-108.162393,-108.165736,-108.169837,-108.190701,-108.380240,-108.379769,-108.379233,-108.378228,-108.346783,-108.203677,-108.875106,-108.874274,-108.873348,-108.871485,-108.814347,-108.388604,-108.218149
50,-108.369984,-125.770109,-108.335626,-108.339173,-108.343496,-108.365655,-108.548943,-108.548483,-108.547990,-108.546983,-108.516738,-108.379084,-109.026073,-109.025270,-109.024370,-109.022576,-108.967378,-108.557113,-108.393537
51,-108.541921,-126.169204,-108.505323,-108.509057,-108.513670,-108.537080,-108.714545,-108.714129,-108.713634,-108.712679,-108.683527,-108.550991,-109.174867,-109.174090,-109.173220,-109.171493,-109.118152,-108.722645,-108.565513
52,-108.710534,-126.563190,-108.671600,-108.675566,-108.680370,-108.705160,-108.877194,-108.876774,-108.876310,-108.875382,-108.847298,-108.719583,-109.321535,-109.320779,-109.319934,-109.318274,-109.266701,-108.885195,-108.734159
53,-108.875913,-126.831558,-108.834603,-108.838754,-108.843854,-108.870034,-109.036945,-109.036542,-109.036103,-109.035201,-109.008080,-108.884945,-109.466116,-109.465389,-109.464578,-109.462957,-109.413077,-109.044947,-108.899554
54,-109.038214,-127.215204,-108.994439,-108.998793,-109.004137,-109.031711,-109.193924,-109.193541,-109.193100,-109.192241,-109.166046,-109.047208,-109.608672,-109.607960,-109.607185,-109.605605,-109.557332,-109.202098,-109.061860
55,-109.197562,-127.595842,-109.151220,-109.155802,-109.161440,-109.190421,-109.348211,-109.347834,-109.347420,-109.346586,-109.321273,-109.206499,-109.749235,-109.748547,-109.747786,-109.746264,-109.699527,-109.356011,-109.221501
56,-109.353972,-127.973359,-109.305089,-109.309868,-109.315768,-109.346246,-109.499891,-109.499543,-109.499131,-109.498322,-109.473851,-109.362914,-109.887851,-109.887187,-109.886449,-109.884980,-109.839692,-109.507620,-109.377617
57,-109.507726,-128.348290,-109.456055,-109.461091,-109.467290,-109.499255,-109.649063,-109.648718,-109.648331,-109.647544,-109.623858,-109.516555,-110.024561,-110.023916,-110.023209,-110.021780,-109.977885,-109.656664,-109.531381
58,-109.658692,-128.720170,-109.604315,-109.609618,-109.616068,-109.649573,-109.795790,-109.795453,-109.795075,-109.794314,-109.771384,-109.667516,-110.159406,-110.158780,-110.158097,-110.156719,-110.114162,-109.803280,-109.682278
59,-109.807128,-129.089505,-109.749887,-109.755384,-109.762141,-109.797284,-109.940145,-109.939828,-109.939480,-109.938726,-109.916506,-109.815901,-110.292435,-110.291837,-110.291173,-110.289832,-110.248542,-109.947612,-109.830776
60,-109.953083,-129.456286,-110.038098,-109.898654,-109.905721,-109.942478,-110.082210,-110.081900,-110.081549,-110.080854,-110.059313,-109.961784,-110.423694,-110.423109,-110.422457,-110.421163,-110.381093,-110.089600,-109.976849
61,-110.096615,-129.820530,-110.380332,-110.039417,-110.046904,-110.085256,-110.222061,-110.221764,-110.221424,-110.220735,-110.199843,-110.105256,-110.553205,-110.552635,-110.552011,-110.550751,-110.511845,-110.229344,-110.120467
62,-110.237805,-130.182324,-110.720895,-110.177795,-110.185535,-110.225616,-110.359758,-110.359462,-110.359137,-110.358475,-110.338210,-110.246379,-110.681016,-110.680479,-110.679860,-110.678628,-110.640871,-110.366974,-110.261501
63,-110.376744,-130.541783,-111.059901,-110.313825,-110.321858,-110.363719,-110.495358,-110.495076,-110.494765,-110.494115,-110.474429,-110.385258,-110.807168,-110.806630,-110.806088,-110.804850,-110.768136,-110.502479,-110.400336
64,-110.513492,-130.898948,-111.397441,-110.447583,-110.455997,-110.499608,-110.628931,-110.628661,-110.628351,-110.627740,-110.608601,-110.521930,-110.931691,-110.931172,-110.930620,-110.929441,-110.893753,-110.635971,-110.537078
65,-110.648129,-131.253919,-111.733709,-110.579154,-110.587951,-110.633340,-110.760530,-110.760267,-110.759964,-110.759361,-110.740774,-110.656486,-111.054626,-111.054126,-111.053583,-111.052431,-111.017727,-110.767486,-110.671744
66,-110.780702,-131.606710,-112.068802,-110.708591,-110.717707,-110.764990,-110.890215,-110.889955,-110.889665,-110.889079,-110.871004,-110.788984,-111.176011,-111.175523,-111.175008,-111.173876,-111.140120,-110.897088,-110.804248
67,-110.911296,-131.957448,-112.402865,-110.835959,-110.845430,-110.894619,-111.029076,-111.017791,-111.017508,-111.016930,-110.999339,-110.919477,-111.295872,-111.295415,-111.294856,-111.293802,-111.260931,-111.024807,-110.934941
68,-111.039977,-132.306209,-112.736032,-110.961297,-110.971152,-111.022296,-111.270726,-111.143808,-111.143534,-111.142978,-111.125851,-111.048043,-111.414246,-111.413772,-111.413263,-111.412225,-111.380238,-111.150757,-111.063497
69,-111.166716,-132.652815,-113.068382,-111.084666,-111.094941,-111.148055,-111.509649,-111.268057,-111.267799,-111.267255,-111.250568,-111.174707,-111.531162,-111.530680,-111.530204,-111.529204,-111.498052,-111.274915,-111.190169
70,-111.291706,-132.997699,-113.400113,-111.206187,-111.216800,-111.271956,-111.745891,-111.390603,-111.390346,-111.389825,-111.373560,-111.299557,-111.646654,-111.646214,-111.645725,-111.644737,-111.614389,-111.397362,-111.315071
71,-111.414858,-133.340527,-113.731423,-111.325807,-111.336814,-111.394056,-111.979537,-111.511471,-111.511219,-111.510711,-111.494868,-111.422638,-111.760757,-111.760341,-111.759879,-111.758885,-111.729308,-111.518150,-111.438318
72,-111.536315,-133.681605,-114.062230,-111.443622,-111.455057,-111.514435,-112.210631,-111.630728,-111.630476,-111.629980,-111.614522,-111.544016,-111.873499,-111.873079,-111.872615,-111.871677,-111.842835,-111.637309,-111.559673
73,-111.656098,-134.020905,-114.392839,-111.559695,-111.571537,-111.633059,-112.439216,-111.748390,-111.748154,-111.747669,-111.732591,-111.663671,-111.984904,-111.984490,-111.984036,-111.983128,-111.955002,-111.754883,-111.679351
74,-111.774249,-134.358462,-114.723332,-111.674027,-111.686300,-111.750036,-112.665365,-111.864510,-111.864282,-111.863807,-111.849095,-111.781710,-112.095001,-112.094604,-112.094161,-112.093265,-112.065828,-111.870921,-111.797471
75,-111.890851,-134.694434,-115.053937,-111.786735,-111.799415,-111.865402,-112.889126,-111.979131,-111.978907,-111.978450,-111.964076,-111.898161,-112.203822,-112.203414,-112.203035,-112.202132,-112.175352,-111.985458,-111.914258
76,-112.005846,-135.028571,-115.384685,-111.897772,-111.910920,-111.979242,-113.110543,-112.092292,-112.092067,-112.091619,-112.077582,-112.013066,-112.311406,-112.311050,-112.310591,-112.309747,-112.283620,-112.098518,-112.029002
77,-112.119371,-135.361193,-115.715732,-112.007219,-112.020823,-112.091438,-113.329676,-112.204014,-112.203806,-112.203370,-112.189641,-112.126392,-112.417733,-112.417377,-112.416954,-112.416130,-112.390602,-112.210153,-112.142502
78,-112.231422,-135.692213,-116.047230,-112.115161,-112.129188,-112.202225,-113.546567,-112.314346,-112.314136,-112.313721,-112.300302,-112.238377,-112.522879,-112.522526,-112.522151,-112.521307,-112.496392,-112.320404,-112.254475
79,-112.342057,-136.021733,-116.379378,-112.221533,-112.236104,-112.311562,-113.761264,-112.423320,-112.423113,-112.422705,-112.409582,-112.348906,-112.626854,-112.626504,-112.626125,-112.625316,-112.600944,-112.429290,-112.365061
80,-112.451302,-136.349753,-116.712198,-112.326437,-112.341434,-112.419433,-113.973824,-112.530964,-112.530764,-112.530371,-112.517530,-112.458000,-112.729668,-112.729333,-112.728946,-112.728176,-112.704384,-112.536844,-112.474242
81,-112.559181,-136.676278,-117.045982,-112.429911,-112.445410,-112.525922,-114.184283,-112.637308,-112.637119,-112.636726,-112.624159,-112.565774,-112.831358,-112.831039,-112.830678,-112.829905,-112.806630,-112.643109,-112.582051
82,-112.665741,-137.001382,-117.380826,-112.531963,-112.547948,-112.631070,-114.392674,-112.742399,-112.742213,-112.741828,-112.729525,-112.672163,-112.931952,-112.931617,-112.931244,-112.930521,-112.907771,-112.748112,-112.688594
83,-112.771017,-137.325106,-117.716748,-112.632644,-112.649133,-112.734881,-114.599053,-112.846241,-112.846061,-112.845691,-112.833639,-112.777335,-113.031448,-113.031132,-113.030771,-113.030067,-113.007794,-112.851868,-112.793756
84,-112.875013,-137.647395,-118.053969,-112.731963,-112.748966,-112.837414,-114.803455,-112.948885,-112.948705,-112.948345,-112.936542,-112.881146,-113.129893,-113.129574,-113.129227,-113.128456,-113.106731,-112.954424,-112.897715
85,-112.977796,-137.968396,-118.392759,-112.829966,-112.847509,-112.938668,-115.005944,-113.050345,-113.050167,-113.049813,-113.038261,-112.983785,-113.227291,-113.226987,-113.226648,-113.225954,-113.204663,-113.055798,-113.000425
