1200MHz / Lb(0.95) dB
,h2(m),1000,1000,1000,1000,1000,10000,10000,10000,10000,10000,10000,20000,20000,20000,20000,20000,20000,20000
,h1(m),1.5,15,30,60,1000,1.5,15,30,60,1000,10000,1.5,15,30,60,1000,10000,20000
D (km),FSL
0,-94.020586,-101.642984,-101.524686,-101.391328,-101.118314,0.000000,-121.664915,-121.653118,-121.639992,-121.613680,-120.746543,0.000000,-127.686166,-127.680239,-127.673650,-127.660456,-127.236765,-121.651498,0.000000
1,-97.037684,-105.709745,-105.546678,-105.365731,-105.005296,-97.345807,-121.725312,-121.693614,-121.658376,-121.587845,-119.368159,-94.481723,-127.700799,-127.684823,-127.667068,-127.631544,-126.507805,-116.309484,-94.363304
2,-101.020968,-110.600367,-110.525322,-110.441726,-110.276499,-106.271062,-121.909520,-121.878525,-121.844075,-121.775150,-119.599478,-100.718806,-127.747908,-127.732003,-127.714326,-127.678953,-126.560578,-116.467598,-100.516342
3,-104.032855,-113.920828,-113.890067,-113.856103,-113.788578,-111.575138,-122.204137,-122.174277,-122.141124,-122.074744,-119.968776,-104.566687,-127.825734,-127.809972,-127.792443,-127.757374,-126.649046,-116.733594,-104.137210
4,-106.337939,-116.389246,-116.369320,-116.347429,-116.303836,-114.940132,-122.592412,-122.564029,-122.532536,-122.469477,-120.472952,-107.376174,-127.933171,-127.917590,-127.900288,-127.865649,-126.771817,-117.087556,-106.756562
5,-108.183351,-118.339318,-118.325286,-118.309653,-118.278698,-117.390660,-123.054721,-123.028034,-122.998430,-122.939151,-121.070866,-109.653427,-128.068628,-128.053307,-128.036280,-128.002200,-126.926909,-117.513406,-108.873716
6,-109.715911,-119.944885,-119.934098,-119.922201,-119.898603,-119.288843,-123.563501,-123.540626,-123.515202,-123.463527,-121.729697,-111.582959,-128.230157,-128.215141,-128.198435,-128.165049,-127.111895,-117.994524,-110.605613
7,-111.023669,-121.306812,-121.298266,-121.288851,-121.270100,-120.775498,-124.097135,-124.075966,-124.052429,-124.005417,-122.424430,-113.255732,-128.415524,-128.400851,-128.384540,-128.351901,-127.323997,-118.515242,-112.091547
8,-112.163157,-122.488418,-122.481374,-122.473693,-122.458181,-122.044990,-124.651464,-124.631948,-124.610268,-124.566948,-123.134721,-114.775668,-128.622256,-128.607965,-128.592084,-128.560303,-127.560204,-119.062089,-113.419538
9,-113.172232,-123.531455,-123.525559,-123.518978,-123.505887,-123.152534,-125.214793,-125.196815,-125.176904,-125.137044,-123.845376,-116.132850,-128.847839,-128.833952,-128.818519,-128.787674,-127.817356,-119.653363,-114.614538
10,-114.077368,-124.464709,-124.459689,-124.453991,-124.442765,-124.134985,-125.778190,-125.761704,-125.743433,-125.706799,-124.545614,-117.410015,-129.089656,-129.076206,-129.061255,-129.031379,-128.092338,-120.263417,-115.701679
11,-114.897776,-125.309064,-125.303793,-125.298096,-125.286860,-125.017868,-126.335285,-126.320112,-126.303314,-126.269745,-125.228226,-118.558738,-129.344919,-129.332221,-129.317766,-129.288870,-128.382103,-120.872210,-116.698500
12,-115.647840,-126.079882,-126.075015,-126.069689,-126.059343,-125.819580,-126.881575,-126.867648,-126.852171,-126.821319,-125.865575,-119.660778,-129.602193,-129.590655,-129.577827,-129.552156,-128.683765,-121.474221,-117.638367
13,-116.338712,-126.789041,-126.784393,-126.779374,-126.769626,-126.553866,-127.414070,-127.401292,-127.387079,-127.358691,-126.479920,-120.694826,-129.868338,-129.857230,-129.844888,-129.820172,-128.994626,-122.065434,-118.502047
14,-116.978857,-127.445523,-127.441117,-127.436256,-127.426952,-127.231286,-127.931075,-127.919307,-127.906187,-127.879979,-127.070380,-121.644341,-130.141384,-130.130688,-130.118811,-130.095043,-129.312262,-122.675480,-119.321385
15,-117.575303,-128.056739,-128.052397,-128.047679,-128.038697,-127.860037,-128.431665,-128.420705,-128.408569,-128.384306,-127.636651,-122.527490,-130.419484,-130.409217,-130.397797,-130.374988,-129.634527,-123.287566,-120.109034
16,-118.133569,-128.628495,-128.624178,-128.619562,-128.610672,-128.446760,-128.915149,-128.905157,-128.893801,-128.871397,-128.179173,-123.412757,-130.701090,-130.691225,-130.680277,-130.658371,-129.959465,-123.881274,-120.844595
17,-118.658198,-129.165551,-129.161267,-129.156637,-129.147855,-128.996753,-129.381810,-129.372456,-129.362076,-129.341140,-128.698754,-124.235691,-130.984755,-130.975310,-130.964806,-130.943810,-130.285467,-124.456121,-121.534295
18,-119.153062,-129.671949,-129.667604,-129.662944,-129.654177,-129.514317,-129.831929,-129.823225,-129.813529,-129.794178,-129.196279,-125.003437,-131.269303,-131.260253,-131.250184,-131.230063,-130.601560,-125.011830,-122.216904
19,-119.621354,-130.151015,-130.146547,-130.141832,-130.132980,-130.003169,-130.265955,-130.257808,-130.248759,-130.230649,-129.673002,-125.721946,-131.553680,-131.545008,-131.535354,-131.516086,-130.914133,-125.548538,-122.875073
20,-120.065688,-130.605461,-130.601005,-130.596069,-130.587074,-130.442099,-130.684514,-130.676786,-130.668605,-130.651460,-130.129853,-126.396486,-131.837011,-131.828697,-131.819455,-131.800975,-131.224484,-126.094991,-123.497773
21,-120.488456,-131.037761,-131.033107,-131.028147,-131.018908,-130.879715,-131.066962,-131.061843,-131.056019,-131.044325,-130.568162,-127.053209,-132.118576,-132.110593,-132.101734,-132.084022,-131.531865,-126.640176,-124.088350
22,-120.891671,-131.449983,-131.445157,-131.440012,-131.430523,-131.296292,-131.435140,-131.430192,-131.424688,-131.413746,-130.988990,-127.683957,-132.397717,-132.390066,-132.381591,-132.364619,-131.835667,-127.165550,-124.649642
23,-121.277009,-131.843846,-131.838843,-131.833473,-131.823651,-131.693799,-131.791080,-131.786445,-131.781293,-131.770958,-131.393365,-128.279966,-132.673968,-132.666657,-132.658509,-132.642253,-132.135409,-127.671856,-125.218507
24,-121.646009,-132.197498,-132.215715,-132.210109,-132.199887,-132.073878,-132.135507,-132.131139,-132.126272,-132.116571,-131.782426,-128.844417,-132.946923,-132.939898,-132.932114,-132.916523,-132.430687,-128.159872,-125.773477
25,-122.000018,-132.467582,-132.577041,-132.571204,-132.560509,-132.437959,-132.468994,-132.464867,-132.460274,-132.451103,-132.156940,-129.380000,-133.216309,-133.209554,-133.202078,-133.187126,-132.721231,-128.630426,-126.303524
26,-122.340145,-132.667361,-132.924031,-132.917878,-132.906622,-132.787346,-132.792057,-132.788160,-132.783805,-132.775121,-132.507533,-129.889230,-133.481788,-133.475317,-133.468148,-133.453782,-133.006794,-129.084249,-126.810660
27,-122.667493,-132.808738,-133.257605,-133.251132,-133.239194,-133.123114,-133.105212,-133.101504,-133.097364,-133.089140,-132.835328,-130.374318,-133.743247,-133.737056,-133.730163,-133.716395,-133.287288,-129.522082,-127.296546
28,-122.982971,-132.900845,-133.578579,-133.571713,-133.559107,-133.446317,-133.408922,-133.405406,-133.401478,-133.393685,-133.152485,-130.837157,-134.000559,-133.994577,-133.987991,-133.974733,-133.562632,-129.948513,-127.762697
29,-123.287396,-132.896797,-133.887701,-133.880478,-133.867300,-133.757849,-133.703687,-133.700330,-133.696616,-133.689189,-133.459522,-131.279444,-134.253612,-134.247890,-134.241431,-134.228774,-133.832690,-130.378784,-128.210508
30,-123.581508,-132.734860,-134.185763,-134.178331,-134.164902,-134.058443,-133.989950,-133.986753,-133.983205,-133.976098,-133.757083,-131.702811,-134.502335,-134.496833,-134.490771,-134.478464,-134.097557,-130.794232,-128.672819
31,-123.866018,-132.528762,-134.473887,-134.466354,-134.452743,-134.348914,-134.268147,-134.265078,-134.261664,-134.254895,-134.045629,-132.094633,-134.746829,-134.741519,-134.735588,-134.723690,-134.357234,-131.195657,-129.124836
32,-124.141516,-132.270512,-134.752933,-134.745324,-134.731526,-134.629855,-134.538586,-134.535647,-134.532389,-134.525931,-134.325647,-132.470358,-134.986828,-134.981704,-134.976042,-134.964700,-134.611851,-131.583673,-129.560091
33,-124.408535,-131.918859,-135.023584,-135.015862,-135.001743,-134.901848,-134.801693,-134.798907,-134.795787,-134.789599,-134.597635,-132.831719,-135.222595,-135.217702,-135.212208,-135.201266,-134.861223,-131.958952,-129.979680
34,-124.667611,-131.536582,-135.286319,-135.278392,-135.263863,-135.165453,-135.057870,-135.055169,-135.052195,-135.046227,-134.861941,-133.179358,-135.454109,-135.449355,-135.444087,-135.433640,-135.105652,-132.322189,-130.384467
35,-124.919181,-131.173983,-135.541555,-135.533363,-135.518313,-135.421146,-135.307343,-135.304768,-135.301927,-135.296191,-135.119043,-133.514885,-135.681408,-135.676907,-135.671784,-135.661651,-135.345234,-132.673879,-130.775320
36,-125.163666,-130.837366,-135.789642,-135.781143,-135.765511,-135.669372,-135.550499,-135.548016,-135.545256,-135.539763,-135.369226,-133.838386,-135.904566,-135.900173,-135.895311,-135.885465,-135.579930,-133.014721,-131.153089
37,-125.401475,-130.483838,-136.030991,-136.022130,-136.005850,-135.910549,-135.787594,-135.785210,-135.782537,-135.777259,-135.612862,-134.151152,-136.123654,-136.119447,-136.114602,-136.105094,-135.810159,-133.345069,-131.518427
38,-125.632949,-130.248365,-136.265864,-136.256618,-136.239624,-136.145040,-136.018918,-136.016618,-136.014077,-136.008947,-135.850256,-134.453360,-136.338767,-136.334654,-136.330006,-136.320831,-136.035559,-133.665566,-131.872076
39,-125.858398,-130.006418,-136.494642,-136.484961,-136.467225,-136.373203,-136.244722,-136.242471,-136.240008,-136.235078,-136.081738,-134.746096,-136.546513,-136.543549,-136.540240,-136.532573,-136.256601,-133.976633,-132.214608
40,-126.078177,-129.819827,-136.717594,-136.707441,-136.688917,-136.595371,-136.465219,-136.463061,-136.460683,-136.455902,-136.307547,-135.029688,-136.741761,-136.738891,-136.735676,-136.729306,-136.473252,-134.278711,-132.553069
41,-126.292535,-129.681037,-136.935029,-136.924406,-136.904988,-136.811759,-136.680683,-136.678584,-136.676274,-136.671679,-136.527958,-135.304651,-136.933666,-136.930885,-136.927847,-136.921637,-136.685670,-134.572242,-132.892492
42,-126.501727,-129.551163,-137.147168,-137.135993,-137.115739,-137.022716,-136.891274,-136.889262,-136.887027,-136.882540,-136.743179,-135.571674,-137.122380,-137.119684,-137.116671,-137.110704,-136.894027,-134.857661,-133.221773
43,-126.705987,-129.496493,-137.354282,-137.342536,-137.321325,-137.228488,-137.097238,-137.095295,-137.093096,-137.088798,-136.953483,-135.830624,-137.307901,-137.305288,-137.302405,-137.296637,-137.098415,-135.127554,-133.541409
44,-126.905572,-129.443965,-137.556594,-137.544243,-137.522086,-137.429313,-137.298766,-137.296877,-137.294766,-137.290559,-137.159075,-136.082507,-137.490312,-137.487803,-137.484967,-137.479327,-137.298900,-135.388180,-133.851832
45,-127.100665,-129.433494,-137.754307,-137.741325,-137.718100,-137.625380,-137.496022,-137.494194,-137.492131,-137.488096,-137.360149,-136.327424,-137.669725,-137.667223,-137.664527,-137.659083,-137.488847,-135.641600,-134.153563
46,-127.291473,-129.450002,-137.947636,-137.933969,-137.909670,-137.816912,-137.689179,-137.687392,-137.685433,-137.681412,-137.556883,-136.565893,-137.846156,-137.843768,-137.841114,-137.835805,-137.670402,-135.888720,-134.446842
47,-127.478199,-129.473507,-138.136750,-138.122372,-138.096951,-138.004098,-137.878391,-137.876649,-137.874714,-137.870831,-137.749478,-136.798089,-138.019719,-138.017394,-138.014779,-138.009648,-137.848867,-136.129932,-134.732224
48,-127.660992,-129.541027,-138.321823,-138.306713,-138.280106,-138.187125,-138.063827,-138.062125,-138.060244,-138.056462,-137.938085,-137.024418,-138.190472,-138.188195,-138.185679,-138.180662,-138.024270,-136.365225,-135.010016
49,-127.840000,-129.618894,-138.503044,-138.487146,-138.459316,-138.366149,-138.245609,-138.243951,-138.242092,-138.238437,-138.122838,-137.245027,-138.358453,-138.356251,-138.353809,-138.348913,-138.196697,-136.595001,-135.280622
50,-128.015405,-129.706091,-138.680553,-138.663820,-138.634705,-138.541356,-138.423880,-138.422260,-138.420469,-138.416860,-138.303940,-137.460310,-138.523773,-138.521631,-138.519248,-138.514487,-138.366229,-136.819134,-135.544171
51,-128.187347,-129.817434,-138.854494,-138.836901,-138.806477,-138.712843,-138.598784,-138.597207,-138.595434,-138.591925,-138.481489,-137.670439,-138.686483,-138.684397,-138.682074,-138.677443,-138.532968,-137.038230,-135.801178
52,-128.355951,-129.943337,-139.025025,-139.006490,-138.974642,-138.880799,-138.770413,-138.768870,-138.767151,-138.763711,-138.655660,-137.875705,-138.846646,-138.844611,-138.842344,-138.837840,-138.696972,-137.252379,-136.051856
53,-128.521351,-130.077571,-139.192220,-139.172792,-139.139460,-139.045368,-138.938909,-138.937391,-138.935719,-138.932346,-138.826497,-138.076271,-139.004322,-139.002347,-139.000142,-138.995733,-138.858312,-137.461867,-136.296404
54,-128.683612,-130.220117,-139.356247,-139.335759,-139.300944,-139.206562,-139.104366,-139.102894,-139.101238,-139.097947,-138.994195,-138.272353,-139.159591,-139.157659,-139.155518,-139.151204,-139.017065,-137.667010,-136.535143
55,-128.842964,-130.370787,-139.517248,-139.495676,-139.459317,-139.364618,-139.266898,-139.265452,-139.263841,-139.260612,-139.158849,-138.464159,-139.312503,-139.310621,-139.308519,-139.304314,-139.173313,-137.867103,-136.768726
56,-128.999412,-130.528957,-139.675252,-139.652586,-139.614581,-139.519620,-139.426615,-139.425200,-139.423609,-139.420439,-139.320563,-138.645756,-139.463131,-139.461285,-139.459230,-139.455128,-139.327105,-138.063336,-136.996066
57,-129.153124,-130.693978,-139.830414,-139.806589,-139.766906,-139.671640,-139.583578,-139.582198,-139.580650,-139.577534,-139.479430,-138.817935,-139.611503,-139.609700,-139.607701,-139.603687,-139.478518,-138.255464,-137.218815
58,-129.304113,-130.928693,-139.982873,-139.957785,-139.916351,-139.820806,-139.737909,-139.736554,-139.735029,-139.731971,-139.635556,-138.986751,-139.757704,-139.755930,-139.753977,-139.750059,-139.627626,-138.443708,-137.436384
59,-129.452552,-131.303042,-140.132631,-140.106270,-140.062954,-139.967207,-139.889696,-139.888355,-139.886876,-139.883854,-139.789031,-139.152345,-139.901766,-139.900043,-139.898132,-139.894293,-139.774464,-138.628258,-137.643115
60,-129.598493,-131.676296,-140.279899,-140.252151,-140.206927,-140.110935,-140.038991,-140.037669,-140.036200,-140.033266,-139.939955,-139.314822,-140.043763,-140.042076,-140.040196,-140.036447,-139.919117,-138.809130,-137.844056
61,-129.742044,-132.048658,-140.424568,-140.395429,-140.348364,-140.252094,-140.185889,-140.184599,-140.183154,-140.180252,-140.088379,-139.474306,-140.183729,-140.182078,-140.180248,-140.176572,-140.061630,-138.986489,-138.040782
62,-129.883237,-132.425668,-140.567124,-140.536524,-140.487373,-140.390968,-140.330465,-140.329195,-140.327778,-140.324928,-140.234428,-139.630885,-140.321740,-140.320127,-140.318321,-140.314710,-140.202091,-139.160519,-138.233196
63,-130.022162,-132.813766,-140.707969,-140.675803,-140.624538,-140.528090,-140.472803,-140.471548,-140.470157,-140.467342,-140.378125,-139.784696,-140.457814,-140.456221,-140.454510,-140.450930,-140.340475,-139.331256,-138.421844
64,-130.158920,-133.228135,-140.847983,-140.814250,-140.760898,-140.664486,-140.612945,-140.611719,-140.610340,-140.607587,-140.519583,-139.935798,-140.592010,-140.590456,-140.588750,-140.585266,-140.476912,-139.498871,-138.606876
65,-130.293554,-133.664767,-140.987413,-140.952091,-140.896619,-140.800421,-140.750975,-140.749765,-140.748403,-140.745679,-140.658857,-140.084306,-140.724386,-140.722862,-140.721183,-140.717757,-140.611417,-139.663444,-138.788372
66,-130.426131,-134.076522,-141.123672,-141.086596,-141.028891,-140.932951,-140.886954,-140.885754,-140.884415,-140.881729,-140.796012,-140.230302,-140.854972,-140.853478,-140.851844,-140.848470,-140.744066,-139.825088,-138.966295
67,-130.556731,-134.505526,-141.258932,-141.220016,-141.160044,-141.064474,-141.020940,-141.019759,-141.018437,-141.015776,-140.931106,-140.373858,-140.983821,-140.982368,-140.980704,-140.977440,-140.874866,-139.983877,-139.141076
68,-130.685376,-134.956758,-141.393412,-141.352756,-141.290455,-141.195446,-141.152978,-141.151816,-141.150513,-141.147893,-141.064216,-140.515075,-141.110957,-141.109510,-141.107910,-141.104691,-141.003908,-140.139959,-139.312403
69,-130.812148,-135.392632,-141.525620,-141.483069,-141.418402,-141.323986,-141.283133,-141.281983,-141.280704,-141.278114,-141.195378,-140.653994,-141.236457,-141.234993,-141.233442,-141.230289,-141.131211,-140.293356,-139.480603
70,-130.937102,-135.825448,-141.656248,-141.611705,-141.544633,-141.450927,-141.411465,-141.410332,-141.409062,-141.406511,-141.324669,-140.790722,-141.360308,-141.358906,-141.357355,-141.354241,-141.256802,-140.444186,-139.645851
71,-131.060279,-136.268005,-141.785449,-141.738862,-141.669305,-141.576395,-141.538021,-141.536890,-141.535633,-141.533110,-141.452135,-140.925320,-141.482597,-141.481221,-141.479711,-141.476617,-141.380747,-140.592534,-139.808305
72,-131.181734,-136.708200,-141.912667,-141.863860,-141.791712,-141.699794,-141.662827,-141.661730,-141.660481,-141.657985,-141.577813,-141.057870,-141.603315,-141.601963,-141.600463,-141.597451,-141.503082,-140.738465,-139.967746
73,-131.301524,-137.151617,-142.038712,-141.987764,-141.913052,-141.822152,-141.785962,-141.784874,-141.783646,-141.781175,-141.701780,-141.188368,-141.722547,-141.721201,-141.719723,-141.716765,-141.623849,-140.882053,-140.124452
74,-131.419678,-137.595883,-142.163770,-142.110522,-142.033189,-141.943478,-141.907451,-141.906374,-141.905163,-141.902715,-141.824056,-141.316933,-141.840280,-141.838972,-141.837516,-141.834594,-141.743071,-141.023379,-140.278592
75,-131.536249,-138.022703,-142.286144,-142.230462,-142.150380,-142.061954,-142.027343,-142.026283,-142.025081,-142.022664,-141.944692,-141.443608,-141.956584,-141.955275,-141.953892,-141.950985,-141.860797,-141.162504,-140.430457
76,-131.651276,-138.459119,-142.407394,-142.349217,-142.266358,-142.179407,-142.145693,-142.144640,-142.143444,-142.141046,-142.063740,-141.568446,-142.071482,-142.070242,-142.068792,-142.065964,-141.977081,-141.299480,-140.579256
77,-131.764796,-138.909849,-142.527608,-142.466842,-142.381186,-142.295752,-142.262512,-142.261472,-142.260297,-142.257923,-142.181232,-141.691425,-142.185024,-142.183750,-142.182345,-142.179558,-142.091897,-141.434385,-140.725933
78,-131.876852,-139.362543,-142.646840,-142.583436,-142.494965,-142.411290,-142.377863,-142.376828,-142.375658,-142.373315,-142.297222,-141.812800,-142.297162,-142.295930,-142.294584,-142.291796,-142.205347,-141.567285,-140.870225
79,-131.987469,-139.806194,-142.764175,-142.698022,-142.606591,-142.524892,-142.491773,-142.490747,-142.489584,-142.487258,-142.411730,-141.932457,-142.408007,-142.406797,-142.405457,-142.402723,-142.317391,-141.698223,-141.012279
80,-132.096745,-140.238434,-142.879310,-142.810239,-142.715774,-142.636073,-142.604272,-142.603257,-142.602106,-142.599805,-142.524810,-142.050439,-142.517577,-142.516378,-142.515037,-142.512360,-142.428161,-141.820647,-141.152112
81,-132.204627,-140.672051,-142.993311,-142.921269,-142.823743,-142.746208,-142.715394,-142.714394,-142.713258,-142.710965,-142.636478,-142.166861,-142.625889,-142.624701,-142.623395,-142.620733,-142.537578,-141.939795,-141.289803
82,-132.311135,-141.107121,-143.106225,-143.031147,-142.930528,-142.855359,-142.825198,-142.824205,-142.823076,-142.820799,-142.746795,-142.281670,-142.732943,-142.731768,-142.730460,-142.727863,-142.645742,-142.057352,-141.425450
83,-132.416427,-141.549457,-143.218127,-143.139840,-143.036167,-142.963554,-142.933680,-142.932697,-142.931579,-142.929325,-142.855774,-142.395046,-142.838787,-142.837647,-142.836359,-142.833797,-142.752640,-142.173344,-141.559002
84,-132.520469,-142.009676,-143.329003,-143.247508,-143.140682,-143.070873,-143.040896,-143.039927,-143.038811,-143.036575,-142.963460,-142.506847,-142.943505,-142.942335,-142.941066,-142.938454,-142.858312,-142.287831,-141.690638
