125MHz / Lb(0.05) dB
,h2(m),1000,1000,1000,1000,1000,10000,10000,10000,10000,10000,10000,20000,20000,20000,20000,20000,20000,20000
,h1(m),1.5,15,30,60,1000,1.5,15,30,60,1000,10000,1.5,15,30,60,1000,10000,20000
D (km),FSL
0,74.375162,70.218299,70.100058,69.966764,69.693877,-0.000000,90.230696,90.218956,90.205894,90.179709,89.316556,-0.000000,96.251947,96.246078,96.239552,96.226485,95.806777,90.231044,-0.000000
1,77.392260,72.846389,72.828735,72.808849,72.768678,71.997209,90.268035,90.263416,90.258265,90.247905,89.878957,73.992135,96.261520,96.259186,96.256588,96.251377,96.078065,92.653920,74.128108
2,81.375573,76.476073,76.473323,76.469983,76.464329,76.754843,90.375607,90.371188,90.366264,90.356375,90.006378,79.817768,96.288906,96.286607,96.284047,96.278909,96.108163,92.762056,80.025483
3,84.387323,79.886334,79.325894,79.325059,79.323600,79.647985,90.548472,90.544345,90.539765,90.530539,90.208502,83.067595,96.334060,96.331814,96.329309,96.324284,96.157263,92.930400,83.456022
4,86.692441,83.684815,81.543020,81.543712,81.545200,81.815137,90.778374,90.774604,90.770434,90.762025,90.471117,85.318152,96.396342,96.394152,96.391721,96.386833,96.224589,93.152561,85.849249
5,88.537980,86.775749,83.332884,83.334025,83.336557,83.554656,91.055683,91.052301,91.048563,91.041022,90.783093,87.010256,96.474904,96.472792,96.470441,96.465717,96.309129,93.418634,87.637995
6,90.070489,88.941374,84.827134,84.828428,84.831172,85.010824,91.370861,91.367795,91.364376,91.357564,91.132403,88.358973,96.568750,96.566723,96.564456,96.559931,96.409712,93.718548,89.097971
7,91.378201,90.459413,86.107262,86.108640,86.111453,86.269265,91.714711,91.712030,91.709035,91.703064,91.508064,89.480329,96.676775,96.674837,96.672677,96.668340,96.525047,94.042922,90.317301
8,92.517767,92.455698,87.225808,87.227224,87.229897,87.370186,92.078456,92.076127,92.073535,92.068360,91.900744,90.425295,96.797774,96.795931,96.793880,96.789760,96.653771,94.383771,91.345452
9,93.526828,94.373676,88.218579,88.219846,88.222435,88.348301,92.455070,92.453037,92.450816,92.446333,92.303019,91.255160,96.930543,96.928793,96.926845,96.922956,96.794473,94.725250,92.241273
10,94.431892,96.112391,89.110581,89.111772,89.114304,89.228221,92.838801,92.837055,92.835160,92.831292,92.709132,91.979837,97.073819,97.072172,97.070334,97.066669,96.945780,95.067549,93.034607
11,95.252323,97.701473,89.920681,89.922325,89.925456,90.027787,93.225108,93.223619,93.221987,93.218729,93.114744,92.638972,97.226442,97.224862,97.223133,97.219677,97.106347,95.410542,93.745260
12,96.002425,99.164054,90.661934,90.663570,90.666770,90.760350,93.610571,93.609305,93.607887,93.605112,93.517755,93.230636,97.387586,97.386092,97.384425,97.381075,97.274894,95.751388,94.379230
13,96.693283,100.518712,91.345313,91.347006,91.350237,91.436213,93.992506,93.991446,93.990262,93.987925,93.914702,93.772374,97.555742,97.554346,97.552791,97.549657,97.450206,96.088019,94.962906
14,97.333413,101.780063,91.979172,91.980877,91.984187,92.063511,94.369083,94.368181,94.367183,94.365154,94.304087,94.277588,97.729861,97.728547,97.727090,97.724161,97.631170,96.411743,95.495864
15,97.929878,102.960545,92.570105,92.571891,92.575323,92.648690,94.738886,94.738164,94.737297,94.735546,94.684807,94.750180,97.908923,97.907701,97.906335,97.903617,97.816776,96.725211,95.982642
16,98.488145,104.069897,93.123591,93.125491,93.128957,93.197091,95.101020,95.100480,95.099644,95.098231,95.056253,95.185202,98.092052,98.090908,98.089643,98.087102,98.006065,97.031937,96.438769
17,99.012774,105.116362,93.644085,93.646046,93.649679,93.713035,95.454903,95.454361,95.453804,95.452467,95.418108,95.597222,98.278394,98.277340,98.276161,98.273807,98.198221,97.331675,96.868032
18,99.507637,106.107031,94.135251,94.137313,94.141124,94.200076,95.800199,95.799739,95.799236,95.798293,95.770154,95.988851,98.467227,98.466251,98.465156,98.462974,98.392949,97.624244,97.263083
19,99.975925,107.047786,94.600229,94.602417,94.606401,94.661339,96.136707,96.136338,96.135920,96.135069,96.112587,96.362213,98.657878,98.656969,98.655951,98.653935,98.589223,97.909648,97.633498
20,100.420248,107.943461,95.041753,95.043951,95.048135,95.113033,96.464448,96.464130,96.464043,96.463152,96.445286,96.719195,98.849748,98.848901,98.847962,98.846083,98.786329,98.183417,97.985849
21,100.843033,108.798607,95.461819,95.464260,95.468623,95.531430,96.786002,96.785537,96.785038,96.784000,96.768658,97.058641,99.042305,99.041526,99.040653,99.038910,98.983766,98.447716,98.321921
22,101.246233,109.616878,95.862612,95.865180,95.869789,95.930772,97.099022,97.098622,97.098158,97.097284,97.082911,97.383403,99.235088,99.234366,99.233569,99.231955,99.181094,98.705574,98.643216
23,101.631630,110.401631,96.245741,96.248426,96.253267,96.312777,97.418559,97.403199,97.402818,97.402027,97.388292,97.696057,99.427707,99.427044,99.426290,99.424805,99.377932,98.957192,98.943415
24,102.000582,111.155383,96.612625,96.615499,96.620574,96.678884,97.757719,97.699501,97.699163,97.698516,97.685231,97.997592,99.619797,99.619161,99.618482,99.617108,99.573932,99.202785,99.229187
25,102.354575,111.880921,96.979659,96.967623,96.972924,97.030354,98.116254,97.987832,97.987546,97.986986,97.973885,98.288785,99.811030,99.810469,99.809837,99.808582,99.768830,99.442592,99.504242
26,102.694717,112.580226,97.368914,97.305869,97.311368,97.368343,98.490582,98.268472,98.268221,98.267742,98.255844,98.570432,100.001192,100.000649,100.000083,99.998899,99.962334,99.676800,99.769493
27,103.022081,113.255123,97.774581,97.631183,97.636804,97.693810,98.875259,98.541680,98.541458,98.541063,98.531424,98.843203,100.190034,100.189561,100.189021,100.187950,100.154301,99.905607,100.025684
28,103.337546,113.906842,98.191922,97.944242,97.950013,98.007700,99.267631,98.807753,98.807571,98.807260,98.799624,99.107675,100.377391,100.376927,100.376468,100.375436,100.344564,100.128777,100.273487
29,103.641972,114.536307,98.617271,98.245770,98.251794,98.310821,99.665517,99.066969,99.066839,99.066578,99.060693,99.364306,100.563063,100.562686,100.562114,100.561272,100.532897,100.344761,100.513520
30,103.936083,115.144120,99.052368,98.536521,98.543197,98.603829,100.067178,99.319631,99.319520,99.319285,99.315010,99.613658,100.746991,100.746610,100.746237,100.745318,100.719277,100.556086,100.741245
31,104.220594,115.731614,99.506189,98.817509,98.825061,98.887469,100.473521,99.565992,99.565881,99.565714,99.562815,99.856692,100.928975,100.928711,100.928280,100.927366,100.903588,100.762966,100.961385
32,104.496084,116.300893,99.963701,99.089549,99.098115,99.162279,100.881043,99.806256,99.806171,99.806065,99.804390,100.093393,101.109061,101.108686,101.108316,101.107611,101.085834,100.965530,101.175448
33,104.763124,116.854084,100.423705,99.353303,99.362857,99.428788,101.288796,100.040740,100.040680,100.040607,100.040043,100.323884,101.286996,101.286742,101.286371,101.285690,101.265738,101.163943,101.383844
34,105.022182,117.392517,100.888299,99.609207,99.619745,99.687512,101.693959,100.269645,100.269621,100.269553,100.269963,100.548237,101.462895,101.462594,101.462292,101.461786,101.443423,101.358397,101.586874
35,105.273750,117.917176,101.353213,99.857700,99.869189,99.938885,102.091279,100.493200,100.493208,100.493168,100.494470,100.767370,101.636657,101.636463,101.636154,101.635632,101.618932,101.548984,101.784851
36,105.518241,118.428754,101.814777,100.099132,100.111589,100.183318,102.486408,100.711624,100.711619,100.711632,100.713718,100.980941,101.808221,101.808042,101.807836,101.807293,101.792053,101.735923,101.978084
37,105.756050,118.927896,102.266385,100.333881,100.347317,100.421196,102.878862,100.925126,100.925117,100.925171,100.927954,101.189657,101.977673,101.977523,101.977184,101.976698,101.963091,101.919229,102.166789
38,105.987525,119.415173,102.715281,100.562221,100.576653,100.652854,103.255099,101.133897,101.133939,101.133975,101.137374,101.393353,102.144908,102.144770,102.144499,102.144068,102.131628,102.099126,102.351236
39,106.212974,119.891102,103.147338,100.784487,100.799971,100.878622,103.625018,101.338098,101.338140,101.338221,101.342201,101.592659,102.310418,102.310132,102.309795,102.309191,102.297952,102.275700,102.531613
40,106.432752,120.356323,103.567953,101.000944,101.017521,101.098813,103.990901,101.537952,101.538006,101.538092,101.542588,101.787555,102.474688,102.474436,102.474110,102.473513,102.461991,102.449051,102.707322
41,106.647110,120.811269,103.979179,101.211921,101.229578,101.313618,104.341868,101.733597,101.733651,101.733785,101.738719,101.978253,102.636768,102.636483,102.636257,102.635662,102.623747,102.619309,102.878044
42,106.856302,121.256400,104.363589,101.417539,101.436426,101.523367,104.679709,101.925199,101.925264,101.925380,101.930729,102.165069,102.796615,102.796389,102.796105,102.795602,102.783330,102.786603,103.045356
43,107.060566,121.692151,104.740790,101.618117,101.638212,101.728289,105.012605,102.112907,102.112947,102.113135,102.118819,102.347739,102.955816,102.954094,102.953869,102.953412,102.940734,102.951324,103.209405
44,107.260143,122.118979,105.092493,101.813846,101.835261,101.928603,105.335053,102.296870,102.296942,102.297102,102.303128,102.526884,103.120794,103.109662,103.109413,103.108948,103.095938,103.113545,103.370312
45,107.455241,122.537276,105.427422,102.008056,102.027641,102.124486,105.638087,102.477229,102.477295,102.477522,102.483791,102.702412,103.291597,103.263040,103.262866,103.262466,103.249891,103.272663,103.528258
46,107.646055,122.947415,105.748813,102.213041,102.215644,102.316146,105.935539,102.654092,102.654212,102.654352,102.660935,102.874640,103.467476,103.414412,103.414215,103.413820,103.402157,103.429195,103.683255
47,107.832813,123.349855,106.040472,102.428612,102.399415,102.503758,106.227213,102.827601,102.827697,102.827880,102.834704,103.043535,103.648152,103.563691,103.563470,103.563135,103.552349,103.583334,103.835525
48,108.015556,123.744635,106.320581,102.653388,102.579106,102.687497,106.498191,102.997880,102.997985,102.998178,103.005210,103.209313,103.835926,103.710934,103.710758,103.710418,103.700444,103.734942,103.985140
49,108.194570,124.132322,106.580470,102.886186,102.754889,102.867508,106.760773,103.165030,103.165114,103.165349,103.172539,103.371978,104.027710,103.856184,103.856026,103.855700,103.846488,103.884217,104.132239
50,108.369984,124.513197,106.817125,103.126026,102.926878,103.043964,107.017272,103.329154,103.329265,103.329466,103.336854,103.531747,104.222984,103.999478,103.999328,103.999030,103.990521,104.030933,104.276792
51,108.541921,124.887524,107.041027,103.372021,103.095268,103.216956,107.265615,103.490378,103.490472,103.490695,103.498220,103.688665,104.421277,104.140846,104.140706,104.140437,104.132598,104.175479,104.419026
52,108.710534,125.255626,107.250376,103.623507,103.260062,103.386660,107.494770,103.648761,103.648871,103.649092,103.656775,103.842873,104.622175,104.280320,104.280187,104.279947,104.272741,104.317812,104.558979
53,108.875913,125.496984,107.439437,103.882844,103.421507,103.553212,107.717860,103.804418,103.804539,103.804758,103.812535,103.994426,104.825298,104.417942,104.417825,104.417591,104.410986,104.458078,104.696689
54,109.038214,125.852488,107.616354,104.156950,103.579613,103.716615,107.934778,103.957448,103.957555,103.957789,103.965663,104.143422,105.030340,104.553742,104.553643,104.553417,104.547375,104.596426,104.832260
55,109.197562,126.203848,107.781331,104.435740,103.734590,103.877096,108.145379,104.107908,104.108028,104.108264,104.116225,104.289956,105.236985,104.687765,104.687665,104.687465,104.681955,104.732246,104.966038
56,109.353972,126.550949,107.934822,104.718648,103.886435,104.034733,108.344463,104.255912,104.256024,104.256259,104.264303,104.434856,105.444970,104.820041,104.819948,104.819769,104.814746,104.866372,105.097240
57,109.507726,126.894323,108.077307,105.005177,104.035310,104.189590,108.534939,104.401505,104.401630,104.401864,104.409966,104.578028,105.654053,104.950596,104.950519,104.950351,104.945795,104.998536,105.226873
58,109.658692,127.233508,108.209599,105.296938,104.181265,104.341788,108.719459,104.544775,104.544897,104.545135,104.553297,104.718905,105.864614,105.079468,105.079402,105.079256,105.075147,105.128843,105.354448
59,109.807128,127.569009,108.331409,105.591728,104.324333,104.491408,108.898014,104.685795,104.685936,104.686161,104.694365,104.857567,106.076561,105.206709,105.206647,105.206511,105.202813,105.257417,105.480675
60,109.953083,127.900820,108.590729,105.888931,104.464717,104.638534,109.070639,104.824618,104.824746,104.825008,104.833250,104.994073,106.289075,105.332332,105.332269,105.332153,105.328852,105.384172,105.605242
61,110.096615,128.228964,108.902403,106.186487,104.602505,104.783264,109.237398,104.961333,104.961462,104.961711,104.969987,105.128495,106.501963,105.456370,105.456323,105.456215,105.453285,105.509179,105.728042
62,110.237805,128.553530,109.211383,106.478240,104.737531,104.925591,109.398370,105.095978,105.096113,105.096369,105.104682,105.260880,106.715092,105.578880,105.578826,105.578721,105.576176,105.632549,105.848936
63,110.376744,128.874640,109.517783,106.770332,104.870032,105.065674,109.550384,105.228631,105.228770,105.229021,105.237344,105.391315,106.928331,105.699846,105.699855,105.699722,105.697484,105.754251,105.968244
64,110.513492,129.192341,109.821701,107.062062,105.000123,105.203551,109.695203,105.359341,105.359474,105.359746,105.368069,105.519827,107.141544,105.819344,105.819333,105.819236,105.817314,105.874374,106.086057
65,110.648129,129.506739,110.123334,107.338174,105.127795,105.339275,109.835705,105.488157,105.488288,105.488551,105.496901,105.646488,107.353106,105.937391,105.937378,105.937286,105.935664,105.992937,106.202363
66,110.780702,129.817854,110.422782,107.611049,105.253025,105.472918,109.972051,105.615135,105.615270,105.615534,105.623890,105.771346,107.561516,106.054012,106.054017,106.053923,106.052589,106.109987,106.317062
67,110.911296,130.125824,110.720197,107.880880,105.375970,105.604535,110.115439,105.740337,105.740471,105.740728,105.749080,105.894443,107.769524,106.169255,106.169206,106.169169,106.168084,106.225533,106.430470
68,111.039977,130.430730,111.015717,108.128964,105.496656,105.734192,110.359608,105.863793,105.863929,105.864192,105.872538,106.015845,107.977049,106.283083,106.283075,106.283035,106.282218,106.339679,106.542257
69,111.166716,130.732404,111.309431,108.370783,105.615140,105.861920,110.599172,105.985551,105.985696,105.985957,105.994289,106.135565,108.184001,106.395580,106.395595,106.395574,106.394998,106.452382,106.652647
70,111.291706,131.031287,111.601539,108.605055,105.731416,105.987775,110.834752,106.105674,106.105812,106.106082,106.114399,106.253684,108.390314,106.506816,106.506808,106.506781,106.506434,106.563709,106.761729
71,111.414858,131.327054,111.892248,108.814692,105.845563,106.111807,111.067688,106.224182,106.224320,106.224590,106.232905,106.370233,108.595919,106.616753,106.616762,106.616712,106.616580,106.673700,106.869602
72,111.536315,131.620021,112.181484,109.016625,105.957723,106.234095,111.298089,106.341142,106.341274,106.341543,106.349835,106.485275,108.792828,106.725405,106.725404,106.725393,106.725458,106.782371,106.976022
73,111.656098,131.910168,112.469559,109.205204,106.075562,106.354600,111.525999,106.456568,106.456707,106.456975,106.465254,106.598776,108.988420,106.832831,106.832832,106.832834,106.833095,106.889754,107.081179
74,111.774249,132.197540,112.756561,109.372904,106.203587,106.473426,111.751490,106.570506,106.570649,106.570915,106.579177,106.710839,109.183057,106.939057,106.939061,106.939058,106.939505,106.995885,107.185172
75,111.890851,132.482304,113.042728,109.531272,106.341065,106.590606,111.974609,106.683002,106.683143,106.683415,106.691647,106.821482,109.376696,107.044071,107.044132,107.044108,107.044723,107.100790,107.288201
76,112.005846,132.764221,113.328100,109.674396,106.487310,106.706219,112.195400,106.794090,106.794225,106.794493,106.802707,106.930740,109.569303,107.148004,107.147976,107.147995,107.148792,107.204480,107.389588
77,112.119371,133.043620,113.612838,109.800408,106.641665,106.820142,112.413922,106.903791,106.903936,106.904206,106.912382,107.038576,109.760741,107.250714,107.250715,107.250739,107.251677,107.306999,107.490074
78,112.231422,133.320423,113.897104,109.917316,106.803610,106.932608,112.630217,107.012149,107.012288,107.012568,107.020720,107.145217,109.942859,107.352329,107.352371,107.352361,107.353469,107.408376,107.589369
79,112.342057,133.594744,114.181107,110.023785,106.972727,107.043572,112.844331,107.119197,107.119334,107.119611,107.127734,107.250548,110.121848,107.452855,107.452887,107.452897,107.454119,107.508624,107.687610
80,112.451302,133.866591,114.464875,110.116752,107.151886,107.153012,113.056322,107.224961,107.225099,107.225381,107.233473,107.354578,110.299565,107.552311,107.552327,107.552364,107.553748,107.608585,107.784764
81,112.559181,134.135980,114.748710,110.201838,107.345758,107.261008,113.266224,107.329468,107.329613,107.329886,107.337946,107.457421,110.475988,107.650719,107.650756,107.650776,107.652272,107.707589,107.880848
82,112.665741,134.402994,115.032716,110.279268,107.546227,107.367597,113.474070,107.432764,107.432907,107.433179,107.441208,107.559003,110.651082,107.748073,107.748091,107.748149,107.749777,107.805517,107.975970
83,112.771017,134.667685,115.316922,110.349413,107.752877,107.472778,113.679917,107.534852,107.534997,107.535274,107.543269,107.659491,110.824759,107.844435,107.844459,107.844523,107.846247,107.902377,108.069990
84,112.875013,134.930009,115.601555,110.411154,107.965121,107.576607,113.883798,107.635782,107.635921,107.636201,107.644166,107.758735,110.989969,107.939792,107.939823,107.939809,107.941711,107.998209,108.163085
85,112.977796,135.190123,115.886896,110.465393,108.184111,107.679077,114.085777,107.735564,107.735702,107.735979,107.743926,107.856918,111.150435,108.034187,108.034221,108.034272,108.036247,108.093026,108.255197
86,113.079369,135.447982,116.172864,110.598586,108.408217,107.780243,114.285881,107.834223,107.834373,107.834654,107.842557,107.954014,111.309439,108.127617,108.127655,108.127715,108.129734,108.186848,108.346384
87,113.179766,135.703644,116.459861,110.871103,108.636162,107.880106,114.484130,107.931795,107.931939,107.932214,107.940078,108.049972,111.466940,108.220142,108.220156,108.220228,108.222346,108.279692,108.436599
88,113.279025,135.957181,116.747700,111.144762,108.865402,107.978738,114.680572,108.028296,108.028435,108.028713,108.036544,108.144940,111.622883,108.311730,108.311720,108.311807,108.314011,108.371573,108.525943
89,113.377156,136.208579,117.036833,111.420181,109.090318,108.076031,114.875261,108.123744,108.123897,108.124171,108.131969,108.238859,111.777245,108.402378,108.402468,108.402462,108.404760,108.462538,108.614383
90,113.474191,136.457895,117.327133,111.697628,109.316019,108.172142,115.068201,108.218178,108.218325,108.218601,108.226369,108.331772,111.926820,108.492137,108.492176,108.492257,108.494652,108.552589,108.701927
91,113.570152,136.705155,117.618831,111.977122,109.538039,108.267049,115.259462,108.311594,108.311745,108.312028,108.319744,108.423698,112.068610,108.581061,108.581085,108.581183,108.583619,108.641731,108.788642
92,113.665067,136.950407,117.911944,112.258895,109.746810,108.360763,115.449126,108.404454,108.405023,108.406107,108.412156,108.514658,112.208798,108.669102,108.669133,108.669232,108.671747,108.730005,108.874493
93,113.758961,137.193696,118.206663,112.542892,109.952452,108.453251,115.637094,108.495946,108.496516,108.497651,108.503598,108.604690,112.347353,108.756270,108.756354,108.756436,108.759036,108.817393,108.959538
94,113.851850,137.435031,118.502604,112.829322,110.143488,108.544612,115.823464,108.586490,108.587077,108.588208,108.594093,108.693751,112.484219,108.842703,108.842737,108.842831,108.845488,108.903940,109.043760
