5100MHz / Lb(0.10) dB
,h2(m),1000,1000,1000,1000,1000,10000,10000,10000,10000,10000,10000,20000,20000,20000,20000,20000,20000,20000
,h1(m),1.5,15,30,60,1000,1.5,15,30,60,1000,10000,1.5,15,30,60,1000,10000,20000
D (km),FSL
0,106.588365,103.211322,103.092928,102.959465,102.686239,-0.000000,123.248405,123.236513,123.223281,123.196758,122.322982,-0.000000,129.269656,129.263635,129.256939,129.243533,128.813204,123.212784,-0.000000
1,109.605463,105.940219,105.909261,105.874640,105.805168,104.697176,123.286856,123.280983,123.274440,123.261296,122.804988,106.293683,129.279479,129.276439,129.273057,129.266277,129.043795,125.230249,106.403377
2,113.588746,109.693061,109.683712,109.673017,109.652744,109.679595,123.398065,123.392413,123.386118,123.373490,122.937573,112.160868,129.307798,129.304794,129.301451,129.294748,129.074915,125.342185,112.327163
3,116.600634,112.556447,112.555904,112.555446,112.554740,112.683205,123.576742,123.571414,123.565502,123.553609,123.148022,115.466889,129.354501,129.351554,129.348269,129.341684,129.125784,125.517271,115.777348
4,118.905717,114.779833,114.780500,114.781446,114.783441,114.960649,123.814267,123.809341,123.803887,123.792908,123.421675,117.770195,129.418929,129.416041,129.412836,129.406398,129.195599,125.748530,118.192939
5,120.751130,116.578023,116.579265,116.580593,116.583498,116.775551,124.100582,124.096093,124.091128,124.081130,123.746517,119.509467,129.500202,129.497399,129.494279,129.488020,129.283309,126.025633,120.012544
6,122.283690,118.081953,118.083180,118.084619,118.087655,118.276732,124.429218,124.424195,124.418603,124.407863,124.109866,120.902477,129.597285,129.594574,129.591547,129.585502,129.387691,126.338056,121.498068
7,123.591448,119.372141,119.373425,119.374922,119.377972,119.543532,124.792249,124.787728,124.782688,124.772631,124.500143,122.065241,129.709025,129.706411,129.703501,129.697664,129.507391,126.675983,122.742609
8,124.730935,120.501131,120.502375,120.503892,120.506763,120.653585,125.175456,125.171401,125.166891,125.157884,124.907539,123.049899,129.834163,129.831654,129.828863,129.823265,129.640978,127.031052,123.799007
9,125.740011,121.504495,121.505744,121.507097,121.509858,121.641336,125.571362,125.567710,125.563693,125.555617,125.324293,123.915227,129.971438,129.969033,129.966358,129.961014,129.786967,127.388451,124.719912
10,126.645146,122.407344,122.408480,122.409746,122.412429,122.531238,125.973885,125.970639,125.967061,125.959825,125.744422,124.673758,130.119531,130.117239,130.114686,130.109591,129.943911,127.747157,125.535638
11,127.465554,123.227906,123.229427,123.231156,123.234449,123.341032,126.378355,126.375428,126.372217,126.365801,126.163442,125.362890,130.277339,130.275011,130.272579,130.267718,130.110394,128.106436,126.268192
12,128.215618,123.979989,123.981588,123.983306,123.986661,124.084003,126.781155,126.778546,126.775642,126.769898,126.589844,125.982956,130.448142,130.445570,130.442705,130.436960,130.285067,128.463283,126.925405
13,128.906491,124.674317,124.675931,124.677705,124.681086,124.770408,127.179591,127.177278,127.174695,127.169558,127.008786,126.550795,130.626189,130.623742,130.621021,130.615551,130.466652,128.815512,127.530354
14,129.546636,125.319047,125.320796,125.322582,125.326042,125.408350,127.571834,127.569762,127.567439,127.562764,127.418743,127.079561,130.810345,130.808007,130.805412,130.800208,130.653980,129.155289,128.084235
15,130.143081,125.920979,125.922767,125.924637,125.928220,126.004254,127.956609,127.954672,127.952548,127.948286,127.818677,127.573683,130.999510,130.997291,130.994817,130.989884,130.845991,129.484589,128.591783
16,130.701348,126.485461,126.487317,126.489303,126.492923,126.563443,128.332755,128.331135,128.329102,128.325299,128.208067,128.029168,131.192744,131.190628,131.188285,131.183586,131.041681,129.806529,129.067199
17,131.225977,127.016899,127.018891,127.020944,127.024735,127.090225,128.699944,128.698426,128.696728,128.693109,128.586694,128.459860,131.389134,131.387136,131.384906,131.380451,131.240201,130.120851,129.514440
18,131.720840,127.519059,127.521150,127.523309,127.527285,127.588143,129.057952,129.056535,129.054940,129.051806,128.954432,128.868579,131.587916,131.586020,131.583902,131.579673,131.445593,130.427368,129.927813
19,132.189132,127.995049,127.997226,127.999519,128.003677,128.060315,129.406560,129.405236,129.403767,129.400811,129.311571,129.257622,131.788372,131.786571,131.784556,131.780548,131.653390,130.726093,130.315860
20,132.633466,128.447406,128.449850,128.452159,128.456526,128.523428,129.745878,129.744550,129.743454,129.740528,129.658081,129.629030,131.989884,131.988168,131.986257,131.982435,131.861768,131.013074,130.684776
21,133.056235,128.878459,128.881004,128.883570,128.888124,128.952829,130.070529,130.070008,130.069280,130.067780,129.994451,129.981921,132.191912,132.190268,132.188448,132.184809,132.070203,131.290138,131.036440
22,133.459449,129.290156,129.292871,129.295574,129.300386,129.363192,130.386456,130.385826,130.385119,130.383756,130.320963,130.319119,132.393943,132.392378,132.390655,132.387191,132.278238,131.560153,131.372440
23,133.844834,129.684159,129.687034,129.689876,129.694929,129.756234,130.693782,130.693211,130.692573,130.691266,130.637933,130.643287,132.595584,132.594108,132.592449,132.589157,132.485481,131.823344,131.687510
24,134.213786,130.061786,130.064952,130.067959,130.073248,130.133390,130.992914,130.992387,130.991779,130.990589,130.945854,130.955504,132.796471,132.795052,132.793491,132.790348,132.691577,132.079953,131.987555
25,134.567778,130.424419,130.427801,130.431014,130.436523,130.495918,131.284160,131.283655,131.283085,131.281955,131.244937,131.256625,132.996336,132.994963,132.993465,132.990479,132.896259,132.330244,132.276127
26,134.907920,130.773026,130.776694,130.780062,130.785744,130.844975,131.567759,131.567287,131.566740,131.565664,131.533051,131.547517,133.194830,133.193517,133.192102,133.189222,133.099239,132.574430,132.554202
27,135.235284,131.108469,131.112427,131.115973,131.121723,131.181513,131.844000,131.843539,131.843008,131.841991,131.810730,131.828912,133.391803,133.390576,133.389204,133.386469,133.300376,132.812733,132.822568
28,135.550749,131.431297,131.435634,131.439307,131.445160,131.506480,132.113140,132.112704,132.112199,132.111241,132.081085,132.101439,133.587073,133.585867,133.584591,133.581927,133.499513,133.045008,133.081945
29,135.855175,131.741933,131.746810,131.750697,131.756874,131.820680,132.375486,132.375055,132.374589,132.373655,132.344358,132.365609,133.780467,133.779335,133.777961,133.775513,133.696427,133.269702,133.332990
30,136.149286,132.040785,132.046538,132.050943,132.058074,132.124768,132.631306,132.630891,132.630433,132.629499,132.600923,132.622026,133.971851,133.970755,133.969593,133.967094,133.891108,133.489323,133.571752
31,136.433797,132.328811,132.335990,132.341264,132.349737,132.419490,132.880886,132.880465,132.879993,132.879102,132.851020,132.878035,134.161208,134.160149,134.158940,134.156469,134.083448,133.704110,133.802429
32,136.709288,132.607314,132.616277,132.622638,132.632637,132.705380,133.124390,133.123976,133.123518,133.122663,133.094925,133.127343,134.348243,134.347215,134.346080,134.343839,134.273462,133.914211,134.026544
33,136.976327,132.877403,132.888262,132.895771,132.907253,132.982967,133.362118,133.361739,133.361294,133.360446,133.332944,133.369700,134.533099,134.532172,134.531045,134.528850,134.460880,134.119811,134.244537
34,137.235385,133.139677,133.152460,133.161079,133.174015,133.252766,133.594355,133.593952,133.593530,133.592664,133.565264,133.605231,134.715730,134.714743,134.713693,134.711691,134.645842,134.321123,134.456734
35,137.486953,133.394555,133.409254,133.418969,133.433310,133.515212,133.821224,133.820844,133.820442,133.819578,133.792202,133.834917,134.896001,134.895154,134.894104,134.892102,134.828394,134.518256,134.663474
36,137.731445,133.642330,133.658940,133.669760,133.685519,133.770712,134.043014,134.042631,134.042204,134.041369,134.013910,134.058453,135.073966,135.073103,135.072165,135.070157,135.008340,134.711448,134.865090
37,137.969254,133.883288,133.901877,133.913809,133.931002,134.019653,134.259896,134.259521,134.259078,134.258259,134.230634,134.276601,135.249600,135.248795,135.247730,135.245793,135.185995,134.900728,135.061820
38,138.200728,134.117642,134.138232,134.151318,134.169974,134.262318,134.472080,134.471704,134.471299,134.470436,134.442567,134.489226,135.422924,135.422097,135.421106,135.419235,135.360945,135.086337,135.253953
39,138.426177,134.344994,134.367704,134.381969,134.402153,134.498354,134.679747,134.679337,134.678921,134.678079,134.649931,134.696999,135.593013,135.592454,135.591813,135.590282,135.533494,135.268375,135.441695
40,138.645955,134.563939,134.588804,134.604276,134.626020,134.726196,134.883035,134.882645,134.882228,134.881367,134.852878,134.899934,135.758701,135.758150,135.757512,135.756292,135.703572,135.446955,135.624542
41,138.860313,134.777466,134.804617,134.821388,134.844702,134.949067,135.082168,135.081764,135.081335,135.080498,135.051591,135.098267,135.922154,135.921612,135.921069,135.919833,135.871198,135.622220,135.802120
42,139.069505,134.983692,135.013220,135.031286,135.056325,135.165014,135.277243,135.276858,135.276428,135.275548,135.246202,135.292350,136.083489,136.082957,136.082346,136.081188,136.036485,135.794312,135.976013
43,139.273769,135.184510,135.216557,135.235996,135.262756,135.376064,135.468455,135.468077,135.467609,135.466777,135.436913,135.481932,136.242643,136.242121,136.241561,136.240433,136.199437,135.967147,136.146384
44,139.473346,135.379641,135.414336,135.435210,135.463822,135.581940,135.655954,135.655567,135.655120,135.654236,135.623862,135.667666,136.399655,136.399169,136.398577,136.397425,136.360039,136.138295,136.313366
45,139.668444,135.569672,135.606993,135.629380,135.659846,135.783097,135.839858,135.839470,135.839004,135.838164,135.807182,135.849480,136.554594,136.554045,136.553521,136.552419,136.516731,136.305966,136.477155
46,139.859258,135.756673,135.794501,135.818453,135.850895,135.979485,136.020296,136.019893,136.019470,136.018517,135.986999,136.027707,136.707434,136.706935,136.706380,136.705267,136.669971,136.470714,136.637770
47,140.046017,135.939142,135.978644,136.003286,136.037799,136.172035,136.197387,136.196976,136.196517,136.195583,136.163459,136.202334,136.858245,136.857749,136.857162,136.856094,136.821156,136.632751,136.795447
48,140.228760,136.116483,136.159086,136.183033,136.219682,136.359818,136.371267,136.370844,136.370382,136.369435,136.336670,136.373596,137.007050,137.006544,137.005994,137.004906,136.970261,136.791949,136.950268
49,140.407773,136.289537,136.335382,136.360329,136.397691,136.544008,136.542024,136.541597,136.541102,136.540174,136.506719,136.541507,137.153851,137.153362,137.152823,137.151732,137.117333,136.948525,137.102384
50,140.583187,136.458537,136.507782,136.534459,136.572166,136.725053,136.709775,136.709338,136.708859,136.707871,136.673769,136.706302,137.298724,137.298240,137.297700,137.296622,137.262408,137.102262,137.251770
51,140.755124,136.623039,136.675858,136.704365,136.742370,136.902034,136.874633,136.874193,136.873684,136.872694,136.837884,136.868037,137.441686,137.441207,137.440669,137.439604,137.405543,137.253569,137.398665
52,140.923737,136.783154,136.839727,136.870109,136.908520,137.075093,137.036667,137.036219,137.035714,137.034698,136.999201,137.026866,137.582771,137.582293,137.581755,137.580704,137.546759,137.402415,137.543115
53,141.089117,136.939321,136.999821,137.032269,137.073016,137.245041,137.195995,137.195531,137.195026,137.193984,137.157735,137.182855,137.722009,137.721541,137.721012,137.719951,137.686090,137.548959,137.685163
54,141.251417,137.092271,137.156899,137.191394,137.234664,137.413025,137.352688,137.352229,137.351697,137.350648,137.313651,137.336111,137.859452,137.858982,137.858463,137.857393,137.823578,137.693365,137.824923
55,141.410765,137.241278,137.310237,137.346904,137.392802,137.577730,137.506841,137.506369,137.505838,137.504766,137.467014,137.486741,137.995121,137.994657,137.994129,137.993070,137.959270,137.835014,137.962753
56,141.567176,137.386326,137.459839,137.498816,137.547409,137.739221,137.658543,137.658064,137.657513,137.656417,137.617904,137.633332,138.129070,138.128598,138.128069,138.127017,138.093186,137.974771,138.097859
57,141.720930,137.527677,137.605834,137.647210,137.698642,137.897551,137.807838,137.807360,137.806811,137.805688,137.766391,137.776118,138.261299,138.260829,138.260308,138.259251,138.225371,138.112373,138.231272
58,141.871895,137.665161,137.748335,137.792166,137.846540,138.052831,137.954832,137.954344,137.953780,137.952638,137.912557,137.916622,138.391872,138.391389,138.390872,138.389821,138.355871,138.247934,138.362500
59,142.020331,137.799021,137.887320,137.933757,137.991124,138.205132,138.099595,138.099089,138.098533,138.097353,138.056472,138.054926,138.520798,138.520329,138.519808,138.518751,138.484696,138.381584,138.495145
60,142.166287,137.930354,138.024085,138.073201,138.133754,138.356580,138.242167,138.241647,138.241066,138.239901,138.198215,138.191086,138.648132,138.647661,138.647131,138.646080,138.611904,138.513246,138.626637
61,142.309818,138.058444,138.157726,138.209700,138.273714,138.505879,138.382629,138.382109,138.381516,138.380314,138.337821,138.325173,138.773889,138.773419,138.772897,138.771838,138.737517,138.643000,138.756140
62,142.451008,138.183126,138.288228,138.343165,138.410578,138.652573,138.521041,138.520510,138.519912,138.518694,138.475395,138.457235,138.898127,138.897658,138.897122,138.896051,138.861598,138.770964,138.883519
63,142.589946,138.304470,138.415649,138.473616,138.544584,138.796823,138.657475,138.656931,138.656326,138.655077,138.610947,138.587357,139.020845,139.020363,139.019883,139.018768,138.984105,138.897112,139.009113
64,142.726703,138.422528,138.539980,138.601135,138.675847,138.938665,138.791963,138.791419,138.790795,138.789545,138.744573,138.715566,139.142087,139.141610,139.141102,139.140007,139.105143,139.021541,139.133019
65,142.861349,138.537351,138.661300,138.725776,138.804350,139.078150,138.924578,138.924022,138.923384,138.922102,138.876315,138.841935,139.261894,139.261415,139.260897,139.259791,139.224710,139.144276,139.255236
66,142.993931,138.648965,138.779658,138.847503,138.930058,139.215346,139.055370,139.054797,139.054152,139.052847,139.006226,138.966509,139.380282,139.379802,139.379295,139.378172,139.342860,139.265369,139.375666
67,143.124500,138.757406,138.895156,138.966456,139.053132,139.350309,139.184387,139.183807,139.183150,139.181813,139.134347,139.089331,139.497289,139.496821,139.496251,139.495170,139.459590,139.384836,139.494637
68,143.253149,138.862752,139.007670,139.082690,139.173583,139.483102,139.311667,139.311081,139.310414,139.309060,139.260746,139.210466,139.612927,139.612432,139.611896,139.610796,139.574966,139.502784,139.611821
69,143.379925,138.965035,139.117387,139.196181,139.291467,139.613754,139.437265,139.436667,139.435996,139.434617,139.385449,139.329929,139.727259,139.726721,139.726200,139.725104,139.688996,139.619177,139.727451
70,143.504879,139.064443,139.224457,139.307125,139.406966,139.742624,139.561232,139.560627,139.559939,139.558545,139.508520,139.447796,139.840259,139.839757,139.839205,139.838087,139.801690,139.734085,139.841624
71,143.628051,139.161696,139.329700,139.416415,139.520962,139.871808,139.683610,139.682982,139.682282,139.680864,139.629997,139.564103,139.952007,139.951502,139.950960,139.949802,139.913102,139.847554,139.954443
72,143.749516,139.257176,139.432291,139.523092,139.632456,139.999239,139.804416,139.803799,139.803081,139.801639,139.749907,139.678908,140.062473,140.061969,140.061409,140.060275,140.023253,139.959602,140.065668
73,143.869297,139.356133,139.532107,139.627267,139.741655,140.124772,139.923721,139.923091,139.922370,139.920902,139.868317,139.792180,140.171741,140.171218,140.170651,140.169515,140.132171,140.070267,140.175497
74,143.987455,139.458719,139.629427,139.728982,139.848518,140.248516,140.041545,140.040906,140.040176,140.038683,139.985241,139.904019,140.279784,140.279274,140.278702,140.277546,140.239868,140.179589,140.284035
75,144.104027,139.564327,139.724140,139.828202,139.953003,140.370501,140.157933,140.157288,140.156544,140.155034,140.100720,140.014446,140.386663,140.386124,140.385604,140.384410,140.346380,140.287596,140.391489
76,144.219050,139.672368,139.816305,139.925017,140.055237,140.490813,140.272929,140.272271,140.271510,140.269973,140.214799,140.123493,140.492392,140.491902,140.491283,140.490118,140.451750,140.394304,140.497173
77,144.332604,139.782319,139.905971,140.019442,140.155231,140.609316,140.386542,140.385877,140.385114,140.383556,140.327504,140.231124,140.597009,140.596463,140.595865,140.594689,140.555942,140.499759,140.601843
78,144.444626,139.909356,139.993142,140.111527,140.253042,140.726258,140.498830,140.498150,140.497370,140.495798,140.438881,140.337565,140.700462,140.699935,140.699372,140.698145,140.659047,140.603994,140.705216
79,144.555263,140.043486,140.077846,140.201263,140.348560,140.841586,140.609814,140.609123,140.608329,140.606730,140.548944,140.442702,140.802853,140.802326,140.801744,140.800523,140.761016,140.707024,140.807426
80,144.664499,140.231826,140.160169,140.288699,140.441932,140.955276,140.719518,140.718821,140.718016,140.716399,140.657741,140.546543,140.904189,140.903652,140.903047,140.901837,140.861972,140.807259,140.908447
81,144.772380,140.450674,140.240144,140.373879,140.533186,141.067413,140.827974,140.827272,140.826462,140.824813,140.765282,140.649201,141.004484,141.003938,141.003346,141.002103,140.961828,140.906000,141.008300
82,144.878946,140.670456,140.317684,140.456826,140.622328,141.178032,140.935234,140.934522,140.933698,140.932024,140.871623,140.750605,141.103728,141.103175,141.102555,141.101336,141.060671,141.003672,141.107093
83,144.984208,140.889872,140.392873,140.537494,140.709376,141.287132,141.041293,141.040572,141.039740,141.038048,140.976771,140.850918,141.201963,141.201427,141.200806,141.199576,141.158485,141.100281,141.204695
84,145.088229,141.107666,140.465843,140.616034,140.794330,141.394771,141.146201,141.145476,141.144626,141.142913,141.080766,140.949991,141.299268,141.298679,141.298058,141.296734,141.255298,141.195870,141.301281
85,145.190997,141.305857,140.540829,140.692340,140.877259,141.500940,141.249967,141.249241,141.248378,141.246639,141.183634,141.048008,141.395539,141.394976,141.394350,141.393076,141.351190,141.290448,141.396798
86,145.292568,141.498439,140.685051,140.766527,140.958139,141.605695,141.352639,141.351892,141.351031,141.349273,141.285381,141.144942,141.490886,141.490314,141.489685,141.488404,141.446037,141.384039,141.491309
87,145.392996,141.686646,140.828224,140.838583,141.037038,141.709038,141.454220,141.453466,141.452587,141.450800,141.386029,141.240742,141.585302,141.584754,141.584092,141.582808,141.540016,141.476656,141.584767
88,145.492226,141.869674,140.970426,140.908753,141.114042,141.811137,141.554734,141.553980,141.553084,141.551276,141.485632,141.335556,141.678791,141.678262,141.677568,141.676283,141.633052,141.568316,141.677277
89,145.590355,142.047069,141.111720,141.026030,141.189218,141.911951,141.654241,141.653450,141.652557,141.650722,141.584204,141.429325,141.771431,141.770835,141.770235,141.768840,141.725178,141.659065,141.768808
90,145.687398,142.217921,141.251993,141.165643,141.262438,142.011483,141.752693,141.751916,141.751007,141.749149,141.681762,141.522092,141.863106,141.862525,141.861865,141.860543,141.816453,141.748905,141.859370
91,145.783371,142.383795,141.391302,141.304397,141.333768,142.109712,141.850165,141.849374,141.848457,141.846584,141.778302,141.613874,141.953949,141.953386,141.952703,141.951382,141.906806,141.837840,141.949033
92,145.878273,142.547798,141.529617,141.442117,141.403235,142.206648,141.946727,141.946301,141.945806,141.944739,141.873892,141.704695,142.043954,142.043370,142.042686,142.041350,141.996327,141.925913,142.037766
