15500MHz / Lb(0.01) dB
,h2(m),1000,1000,1000,1000,1000,10000,10000,10000,10000,10000,10000,20000,20000,20000,20000,20000,20000,20000
,h1(m),1.5,15,30,60,1000,1.5,15,30,60,1000,10000,1.5,15,30,60,1000,10000,20000
D (km),FSL
0,116.2,110.9,110.7,110.6,110.3,0,130.9,130.9,130.9,130.9,130,0,136.9,136.9,136.9,136.9,136.4,130.8,0
1,119.3,113.4,113.4,113.4,113.4,113.1,130.9,130.9,130.9,130.9,130.6,115.7,136.9,136.9,136.9,136.9,136.8,133.9,115.9
2,123.2,117,117,117,117,117.6,131.1,131,131,131,130.8,121.4,137,137,137,137,136.8,134,121.7
3,126.3,119.9,119.9,119.9,119.9,120.3,131.2,131.2,131.2,131.2,130.9,124.6,137,137,137,137,136.9,134.1,125.1
4,128.6,122.1,122.1,122.1,122.1,122.5,131.4,131.4,131.4,131.4,131.2,126.8,137.1,137.1,137.1,137.1,136.9,134.3,127.5
5,130.4,123.9,123.9,123.9,123.9,124.2,131.7,131.7,131.7,131.7,131.5,128.4,137.1,137.1,137.1,137.1,137,134.6,129.2
6,131.9,125.4,125.4,125.4,125.5,125.7,132,132,132,132,131.8,129.6,137.2,137.2,137.2,137.2,137.1,134.9,130.6
7,133.2,126.8,126.8,126.8,126.8,127,132.4,132.4,132.4,132.3,132.2,130.7,137.3,137.3,137.3,137.3,137.2,135.2,131.8
8,134.4,127.9,127.9,127.9,127.9,128.1,132.7,132.7,132.7,132.7,132.6,131.6,137.5,137.5,137.5,137.5,137.3,135.5,132.8
9,135.4,129,129,129,129,129.1,133.1,133.1,133.1,133.1,133,132.3,137.6,137.6,137.6,137.6,137.5,135.8,133.6
10,136.3,129.9,129.9,129.9,129.9,130,133.5,133.5,133.5,133.5,133.3,133,137.7,137.7,137.7,137.7,137.6,136.1,134.4
11,137.1,130.7,130.7,130.7,130.8,130.9,133.8,133.8,133.8,133.8,133.7,133.6,137.9,137.9,137.9,137.9,137.8,136.4,135.1
12,137.9,131.5,131.5,131.5,131.5,131.7,134.2,134.2,134.2,134.2,134.1,134.2,138,138,138,138,137.9,136.8,135.7
13,138.6,132.3,132.3,132.3,132.3,132.4,134.6,134.6,134.6,134.6,134.5,134.7,138.2,138.2,138.2,138.2,138.1,137.1,136.2
14,139.2,132.9,132.9,132.9,132.9,133,135,135,135,135,134.9,135.1,138.4,138.4,138.4,138.4,138.3,137.4,136.7
15,139.8,133.6,133.6,133.6,133.6,133.7,135.4,135.4,135.4,135.4,135.3,135.6,138.5,138.5,138.5,138.5,138.4,137.7,137.2
16,140.4,134.2,134.2,134.2,134.2,134.3,135.7,135.7,135.7,135.7,135.6,136,138.7,138.7,138.7,138.7,138.6,137.9,137.6
17,140.9,134.7,134.7,134.7,134.7,134.8,136.1,136.1,136.1,136.1,136,136.4,138.9,138.9,138.9,138.9,138.8,138.2,138
18,141.4,135.3,135.3,135.3,135.3,135.4,136.4,136.4,136.4,136.4,136.3,136.7,139.1,139.1,139.1,139.1,139,138.5,138.3
19,141.8,135.8,135.8,135.8,135.8,135.9,136.8,136.8,136.8,136.8,136.7,137.1,139.3,139.3,139.3,139.3,139.2,138.7,138.7
20,142.3,136.3,136.3,136.3,136.3,136.4,137.1,137.1,137.1,137.1,137,137.4,139.5,139.5,139.5,139.5,139.4,139,139
21,142.7,136.7,136.7,136.7,136.7,136.8,137.4,137.4,137.4,137.4,137.3,137.7,139.7,139.7,139.7,139.7,139.6,139.2,139.3
22,143.1,137.2,137.2,137.2,137.2,137.3,137.7,137.7,137.7,137.7,137.6,138,139.9,139.9,139.9,139.9,139.8,139.5,139.6
23,143.5,137.6,137.6,137.6,137.6,137.7,138,138,138,138,138,138.3,140,140,140,140,140,139.7,139.9
24,143.9,138,138,138,138,138.1,138.3,138.3,138.3,138.3,138.2,138.6,140.2,140.2,140.2,140.2,140.2,139.9,140.2
25,144.2,138.4,138.4,138.4,138.4,138.5,138.6,138.6,138.6,138.6,138.5,138.9,140.4,140.4,140.4,140.4,140.3,140.2,140.4
26,144.6,138.8,138.8,138.8,138.8,138.9,138.9,138.9,138.9,138.9,138.8,139.2,140.6,140.6,140.6,140.6,140.5,140.4,140.7
27,144.9,139.2,139.2,139.2,139.2,139.3,139.2,139.2,139.2,139.2,139.1,139.4,140.8,140.8,140.8,140.8,140.7,140.6,140.9
28,145.2,139.5,139.5,139.5,139.5,139.6,139.5,139.5,139.5,139.5,139.4,139.7,141,141,141,141,140.9,140.8,141.1
29,145.5,139.9,139.9,139.9,139.9,139.9,139.7,139.7,139.7,139.7,139.6,139.9,141.2,141.2,141.2,141.2,141.1,141,141.3
30,145.8,140.2,140.2,140.2,140.2,140.3,140,140,140,140,139.9,140.2,141.4,141.4,141.4,141.4,141.3,141.2,141.6
31,146.1,140.5,140.5,140.5,140.5,140.6,140.3,140.3,140.3,140.3,140.1,140.4,141.5,141.5,141.5,141.5,141.5,141.4,141.8
32,146.4,140.8,140.8,140.8,140.8,140.9,140.5,140.5,140.5,140.5,140.4,140.6,141.7,141.7,141.7,141.7,141.6,141.6,142
33,146.6,141.1,141.1,141.1,141.1,141.2,140.7,140.7,140.7,140.7,140.6,140.8,141.9,141.9,141.9,141.9,141.8,141.8,142.2
34,146.9,141.4,141.4,141.4,141.4,141.5,141,141,141,141,140.8,141.1,142.1,142.1,142.1,142.1,142,142,142.3
35,147.1,141.6,141.7,141.7,141.7,141.8,141.2,141.2,141.2,141.2,141.1,141.3,142.3,142.3,142.3,142.3,142.2,142.2,142.5
36,147.4,141.9,141.9,141.9,142,142.1,141.4,141.4,141.4,141.4,141.3,141.5,142.4,142.4,142.4,142.4,142.3,142.3,142.7
37,147.6,142.2,142.2,142.2,142.2,142.3,141.7,141.7,141.7,141.7,141.5,141.7,142.6,142.6,142.6,142.6,142.5,142.5,142.9
38,147.9,142.4,142.4,142.5,142.5,142.6,141.9,141.9,141.9,141.9,141.7,141.9,142.8,142.8,142.8,142.8,142.7,142.7,143.1
39,148.1,142.7,142.7,142.7,142.7,142.9,142.1,142.1,142.1,142.1,141.9,142.1,142.9,142.9,142.9,142.9,142.8,142.8,143.2
40,148.3,142.9,142.9,143,143,143.1,142.3,142.3,142.3,142.3,142.1,142.3,143.1,143.1,143.1,143.1,143,143,143.4
41,148.5,143.1,143.2,143.2,143.2,143.4,142.5,142.5,142.5,142.5,142.3,142.4,143.3,143.3,143.3,143.3,143.2,143.2,143.6
42,148.7,143.4,143.4,143.4,143.5,143.6,142.7,142.7,142.7,142.7,142.5,142.6,143.4,143.4,143.4,143.4,143.3,143.3,143.7
43,148.9,143.6,143.6,143.7,143.7,143.9,142.9,142.9,142.9,142.9,142.7,142.8,143.6,143.6,143.6,143.6,143.5,143.5,143.9
44,149.1,143.8,143.9,143.9,143.9,144.1,143.1,143.1,143.1,143.1,142.9,143,143.8,143.8,143.7,143.7,143.6,143.6,144
45,149.3,144,144.1,144.1,144.2,144.3,143.3,143.3,143.3,143.3,143.1,143.1,143.9,143.9,143.9,143.9,143.8,143.8,144.2
46,149.5,144.2,144.3,144.3,144.4,144.5,143.5,143.5,143.5,143.5,143.3,143.3,144.1,144.1,144.1,144.1,143.9,144,144.3
47,149.7,144.4,144.5,144.5,144.6,144.8,143.6,143.6,143.6,143.6,143.5,143.5,144.2,144.2,144.2,144.2,144.1,144.1,144.5
48,149.9,144.6,144.7,144.7,144.8,145,143.8,143.8,143.8,143.8,143.6,143.6,144.4,144.4,144.4,144.4,144.2,144.2,144.6
49,150.1,144.8,144.9,144.9,145,145.2,144,144,144,144,143.8,143.8,144.5,144.5,144.5,144.5,144.4,144.4,144.7
50,150.2,145,145.1,145.1,145.2,145.4,144.2,144.2,144.2,144.2,144,144,144.7,144.7,144.7,144.7,144.5,144.5,144.9
51,150.4,145.2,145.3,145.3,145.4,145.6,144.3,144.3,144.3,144.3,144.1,144.1,144.8,144.8,144.8,144.8,144.7,144.7,145
52,150.6,145.3,145.5,145.5,145.6,145.8,144.5,144.5,144.5,144.5,144.3,144.3,144.9,144.9,144.9,144.9,144.8,144.8,145.1
53,150.7,145.5,145.6,145.7,145.8,146,144.7,144.7,144.7,144.7,144.5,144.4,145.1,145.1,145.1,145.1,145,144.9,145.3
54,150.9,145.7,145.8,145.9,146,146.2,144.8,144.8,144.8,144.8,144.6,144.6,145.2,145.2,145.2,145.2,145.1,145.1,145.4
55,151.1,145.8,146,146,146.1,146.4,145,145,145,145,144.8,144.7,145.4,145.4,145.4,145.4,145.2,145.2,145.5
56,151.2,146,146.1,146.2,146.3,146.6,145.2,145.2,145.2,145.1,144.9,144.8,145.5,145.5,145.5,145.5,145.4,145.3,145.7
57,151.4,146.1,146.3,146.4,146.5,146.8,145.3,145.3,145.3,145.3,145.1,145,145.6,145.6,145.6,145.6,145.5,145.5,145.8
58,151.5,146.3,146.5,146.5,146.6,147,145.5,145.5,145.5,145.5,145.2,145.1,145.8,145.8,145.8,145.8,145.6,145.6,145.9
59,151.7,146.4,146.6,146.7,146.8,147.2,145.6,145.6,145.6,145.6,145.4,145.3,145.9,145.9,145.9,145.9,145.8,145.7,146
60,151.8,146.6,146.8,146.9,147,147.4,145.8,145.8,145.8,145.8,145.5,145.4,146,146,146,146,145.9,145.8,146.1
61,152,146.7,146.9,147,147.1,147.5,145.9,145.9,145.9,145.9,145.7,145.5,146.2,146.2,146.2,146.1,146,146,146.3
62,152.1,146.8,147,147.1,147.3,147.7,146.1,146.1,146,146,145.8,145.7,146.3,146.3,146.3,146.3,146.1,146.1,146.4
63,152.2,146.9,147.2,147.3,147.4,147.9,146.2,146.2,146.2,146.2,145.9,145.8,146.4,146.4,146.4,146.4,146.3,146.2,146.5
64,152.4,147,147.3,147.4,147.6,148.1,146.3,146.3,146.3,146.3,146.1,145.9,146.5,146.5,146.5,146.5,146.4,146.3,146.6
65,152.5,147.2,147.4,147.6,147.7,148.2,146.5,146.5,146.5,146.5,146.2,146,146.7,146.6,146.6,146.6,146.5,146.4,146.7
66,152.6,147.3,147.6,147.7,147.9,148.4,146.6,146.6,146.6,146.6,146.3,146.2,146.8,146.8,146.8,146.8,146.6,146.6,146.8
67,152.8,147.4,147.7,147.8,148,148.6,146.7,146.7,146.7,146.7,146.5,146.3,146.9,146.9,146.9,146.9,146.7,146.7,146.9
68,152.9,147.5,147.8,147.9,148.1,148.7,146.9,146.9,146.9,146.9,146.6,146.4,147,147,147,147,146.8,146.8,147
69,153,147.6,147.9,148.1,148.3,148.9,147,147,147,147,146.7,146.5,147.1,147.1,147.1,147.1,147,146.9,147.2
70,153.2,147.7,148,148.2,148.4,149.1,147.1,147.1,147.1,147.1,146.9,146.6,147.2,147.2,147.2,147.2,147.1,147,147.3
71,153.3,147.7,148.1,148.3,148.5,149.2,147.3,147.3,147.3,147.3,147,146.7,147.4,147.4,147.4,147.3,147.2,147.1,147.4
72,153.4,147.8,148.2,148.4,148.6,149.4,147.4,147.4,147.4,147.4,147.1,146.9,147.5,147.5,147.5,147.5,147.3,147.2,147.5
73,153.5,147.9,148.3,148.5,148.7,149.5,147.5,147.5,147.5,147.5,147.2,147,147.6,147.6,147.6,147.6,147.4,147.3,147.6
74,153.6,148.1,148.4,148.6,148.8,149.7,147.6,147.6,147.6,147.6,147.3,147.1,147.7,147.7,147.7,147.7,147.5,147.4,147.7
75,153.8,148.2,148.5,148.7,149,149.8,147.8,147.8,147.8,147.8,147.5,147.2,147.8,147.8,147.8,147.8,147.6,147.5,147.8
76,153.9,148.4,148.6,148.8,149.1,150,147.9,147.9,147.9,147.9,147.6,147.3,147.9,147.9,147.9,147.9,147.7,147.6,147.9
77,154,148.5,148.7,148.9,149.2,150.1,148,148,148,148,147.7,147.4,148,148,148,148,147.8,147.7,148
78,154.1,148.7,148.7,149,149.3,150.2,148.1,148.1,148.1,148.1,147.8,147.5,148.1,148.1,148.1,148.1,147.9,147.8,148.1
79,154.2,148.9,148.8,149.1,149.4,150.4,148.2,148.2,148.2,148.2,147.9,147.6,148.2,148.2,148.2,148.2,148,147.9,148.2
80,154.3,149.1,149,149.1,149.4,150.5,148.4,148.4,148.4,148.3,148,147.7,148.3,148.3,148.3,148.3,148.1,148,148.2
81,154.4,149.2,149.1,149.2,149.5,150.6,148.5,148.5,148.5,148.5,148.1,147.8,148.4,148.4,148.4,148.4,148.2,148.1,148.3
82,154.5,149.4,149.3,149.3,149.6,150.8,148.6,148.6,148.6,148.6,148.2,147.9,148.5,148.5,148.5,148.5,148.3,148.2,148.4
83,154.6,149.6,149.4,149.4,149.7,150.9,148.7,148.7,148.7,148.7,148.4,148,148.6,148.6,148.6,148.6,148.4,148.3,148.5
84,154.7,149.8,149.6,149.6,149.8,151,148.8,148.8,148.8,148.8,148.5,148.1,148.7,148.7,148.7,148.7,148.5,148.4,148.6
85,154.8,150,149.8,149.7,149.8,151.2,148.9,148.9,148.9,148.9,148.6,148.2,148.8,148.8,148.8,148.8,148.6,148.5,148.7
86,154.9,150.1,149.9,149.9,149.9,151.3,149,149,149,149,148.7,148.3,148.9,148.9,148.9,148.9,148.7,148.6,148.8
87,155,150.3,150.1,150,150,151.4,149.1,149.1,149.1,149.1,148.8,148.4,149,149,149,149,148.8,148.7,148.9
88,155.1,150.5,150.3,150.2,150.2,151.5,149.3,149.2,149.2,149.2,148.9,148.5,149.1,149.1,149.1,149.1,148.9,148.8,149
89,155.2,150.6,150.5,150.4,150.3,151.6,149.4,149.4,149.3,149.3,149,148.6,149.2,149.2,149.2,149.2,149,148.9,149.1
90,155.3,150.8,150.6,150.5,150.4,151.8,149.5,149.5,149.5,149.4,149.1,148.7,149.3,149.3,149.3,149.3,149.1,148.9,149.1
91,155.4,151,150.8,150.7,150.6,151.9,149.6,149.6,149.6,149.5,149.2,148.8,149.4,149.4,149.4,149.4,149.2,149,149.2
92,155.5,151.2,151,150.9,150.7,152,149.7,149.7,149.7,149.7,149.3,148.9,149.5,149.5,149.5,149.5,149.3,149.1,149.3
93,155.6,151.3,151.1,151,150.9,152.1,149.8,149.8,149.8,149.8,149.4,149,149.6,149.6,149.6,149.6,149.4,149.2,149.4
94,155.7,151.5,151.3,151.2,151,152.2,149.9,149.9,149.9,149.9,149.5,149,149.7,149.7,149.7,149.7,149.5,149.3,149.5
95,155.8,151.6,151.4,151.3,151.2,152.3,150,150,150,150,149.6,149.1,149.8,149.8,149.8,149.8,149.6,149.4,149.6
96,155.9,151.8,151.6,151.5,151.3,152.3,150.1,150.1,150.1,150.1,149.7,149.2,149.9,149.9,149.9,149.9,149.6,149.5,149.6
97,156,152,151.8,151.7,151.5,152.5,150.2,150.2,150.2,150.2,149.8,149.3,150,150,149.9,149.9,149.7,149.5,149.7
98,156.1,152.1,151.9,151.8,151.7,152.6,150.3,150.3,150.3,150.2,149.9,149.4,150,150,150,150,149.8,149.6,149.8
99,156.2,152.3,152.1,152,151.8,152.7,150.4,150.4,150.4,150.3,149.9,149.5,150.1,150.1,150.1,150.1,149.9,149.7,149.9
100,156.3,152.5,152.3,152.1,152,152.8,150.5,150.5,150.5,150.4,150,149.6,150.2,150.2,150.2,150.2,150,149.8,150
101,156.3,152.6,152.4,152.3,152.2,152.9,150.6,150.6,150.5,150.5,150.1,149.6,150.3,150.3,150.3,150.3,150.1,149.9,150
102,156.4,152.8,152.6,152.5,152.3,153,150.7,150.6,150.6,150.6,150.2,149.7,150.4,150.4,150.4,150.4,150.1,149.9,150.1
103,156.5,153,152.8,152.6,152.5,153.1,150.7,150.7,150.7,150.7,150.3,149.8,150.5,150.5,150.5,150.5,150.2,150,150.2
104,156.6,153.1,152.9,152.8,152.6,153.2,150.8,150.8,150.8,150.8,150.4,149.9,150.6,150.6,150.6,150.5,150.3,150.1,150.3
105,156.7,153.3,153.1,152.9,152.8,153.3,150.9,150.9,150.9,150.9,150.5,150,150.6,150.6,150.6,150.6,150.4,150.2,150.3
106,156.8,153.4,153.2,153.1,152.9,153.5,151,151,151,151,150.6,150,150.7,150.7,150.7,150.7,150.5,150.3,150.4
107,156.8,153.6,153.4,153.3,153.1,153.6,151.1,151.1,151.1,151.1,150.7,150.1,150.8,150.8,150.8,150.8,150.6,150.3,150.5
108,156.9,153.7,153.5,153.4,153.3,153.7,151.2,151.2,151.2,151.2,150.8,150.2,150.9,150.9,150.9,150.9,150.6,150.4,150.6
109,157,153.9,153.7,153.6,153.4,153.8,151.3,151.3,151.3,151.3,150.9,150.3,151,151,151,151,150.7,150.5,150.6
110,157.1,154,153.8,153.7,153.6,153.9,151.4,151.4,151.4,151.4,150.9,150.3,151,151,151,151,150.8,150.6,150.7
111,157.2,154.2,154,153.9,153.7,154,151.5,151.5,151.5,151.4,151,150.4,151.1,151.1,151.1,151.1,150.9,150.6,150.8
112,157.2,154.4,154.1,154,153.9,154,151.6,151.6,151.5,151.5,151.1,150.5,151.2,151.2,151.2,151.2,150.9,150.7,150.8
113,157.3,154.5,154.3,154.2,154,154.1,151.6,151.6,151.6,151.6,151.2,150.6,151.3,151.3,151.3,151.3,151,150.8,150.9
114,157.4,154.6,154.4,154.3,154.2,154.2,151.7,151.7,151.7,151.7,151.3,150.6,151.4,151.4,151.4,151.3,151.1,150.8,151
115,157.5,154.8,154.6,154.5,154.3,154.3,151.8,151.8,151.8,151.8,151.4,150.7,151.4,151.4,151.4,151.4,151.2,150.9,151.1
116,157.5,154.9,154.7,154.6,154.5,154.4,151.9,151.9,151.9,151.9,151.4,150.8,151.5,151.5,151.5,151.5,151.2,151,151.1
117,157.6,155.1,154.9,154.8,154.6,154.5,152,152,152,152,151.5,150.9,151.6,151.6,151.6,151.6,151.3,151.1,151.2
118,157.7,155.2,155,154.9,154.8,154.6,152.1,152.1,152.1,152,151.6,150.9,151.7,151.7,151.7,151.7,151.4,151.1,151.3
119,157.8,155.4,155.2,155.1,154.9,154.7,152.2,152.2,152.1,152.1,151.7,151,151.7,151.7,151.7,151.7,151.5,151.2,151.3
120,157.8,155.5,155.3,155.2,155,154.8,152.2,152.2,152.2,152.2,151.8,151.1,151.8,151.8,151.8,151.8,151.5,151.3,151.4
121,157.9,155.7,155.5,155.3,155.2,154.9,152.3,152.3,152.3,152.3,151.8,151.1,151.9,151.9,151.9,151.9,151.6,151.3,151.5
122,158,155.8,155.6,155.5,155.3,154.9,152.4,152.4,152.4,152.4,151.9,151.2,152,152,152,151.9,151.7,151.4,151.5
123,158.1,155.9,155.7,155.6,155.5,155,152.5,152.5,152.5,152.5,152,151.3,152,152,152,152,151.7,151.5,151.6
124,158.1,156.1,155.9,155.8,155.6,155.1,152.6,152.6,152.6,152.5,152.1,151.3,152.1,152.1,152.1,152.1,151.8,151.5,151.7
125,158.2,156.2,156,155.9,155.8,155.2,152.6,152.6,152.6,152.6,152.1,151.4,152.2,152.2,152.2,152.2,151.9,151.6,151.7
126,158.3,156.3,156.2,156,155.9,155.3,152.7,152.7,152.7,152.7,152.2,151.5,152.3,152.3,152.2,152.2,152,151.7,151.8
127,158.3,156.7,156.3,156.2,156,155.3,152.8,152.8,152.8,152.8,152.3,151.5,152.3,152.3,152.3,152.3,152,151.7,151.8
128,158.4,157,156.4,156.3,156.2,155.4,152.9,152.9,152.9,152.9,152.4,151.6,152.4,152.4,152.4,152.4,152.1,151.8,151.9
129,158.5,157.3,156.6,156.5,156.3,155.5,153,153,153,152.9,152.4,151.7,152.5,152.5,152.5,152.4,152.2,151.9,152
130,158.5,157.6,156.7,156.6,156.4,155.5,153,153,153,153,152.5,151.7,152.5,152.5,152.5,152.5,152.2,151.9,152
131,158.6,157.8,156.8,156.7,156.6,155.6,153.1,153.1,153.1,153.1,152.6,151.8,152.6,152.6,152.6,152.6,152.3,152,152.1
132,158.7,159,157,156.9,156.7,155.7,153.2,153.2,153.2,153.2,152.7,151.9,152.7,152.7,152.7,152.7,152.4,152,152.2
133,158.7,160.2,157.1,157,156.8,155.8,153.3,153.3,153.3,153.2,152.7,151.9,152.7,152.7,152.7,152.7,152.4,152.1,152.2
134,158.8,161.4,157.2,157.1,157,155.9,153.3,153.3,153.3,153.3,152.8,152,152.8,152.8,152.8,152.8,152.5,152.2,152.3
135,158.9,162.6,157.4,157.3,157.1,156,153.4,153.4,153.4,153.4,152.9,152,152.9,152.9,152.9,152.9,152.6,152.2,152.3
136,158.9,164.5,157.5,157.4,157.2,156.1,153.5,153.5,153.5,153.5,153,152.1,152.9,152.9,152.9,152.9,152.6,152.3,152.4
137,159,166.7,157.6,157.5,157.4,156.2,153.6,153.6,153.6,153.5,153,152.2,153,153,153,153,152.7,152.4,152.5
138,159.1,168.9,157.8,157.7,157.5,156.3,153.6,153.6,153.6,153.6,153.1,152.2,153.1,153.1,153.1,153.1,152.7,152.4,152.5
139,159.1,171.2,157.9,157.8,157.6,156.4,153.7,153.7,153.7,153.7,153.2,152.3,153.1,153.1,153.1,153.1,152.8,152.5,152.6
140,159.2,173.4,158,157.9,157.8,156.5,153.8,153.8,153.8,153.8,153.2,152.3,153.2,153.2,153.2,153.2,152.9,152.5,152.6
141,159.2,175.6,158.1,158,157.9,156.6,153.9,153.9,153.9,153.8,153.3,152.4,153.3,153.3,153.3,153.3,152.9,152.6,152.7
142,159.3,177.8,158.3,158.2,158,156.7,153.9,153.9,153.9,153.9,153.4,152.5,153.3,153.3,153.3,153.3,153,152.6,152.7
143,159.4,180.1,158.4,158.3,158.1,156.9,154,154,154,154,153.4,152.5,153.4,153.4,153.4,153.4,153.1,152.7,152.8
144,159.4,182.3,158.9,158.4,158.3,157,154.1,154.1,154.1,154.1,153.5,152.6,153.5,153.5,153.5,153.4,153.1,152.8,152.9
145,159.5,184.5,159.2,158.5,158.4,157.1,154.2,154.2,154.1,154.1,153.6,152.6,153.5,153.5,153.5,153.5,153.2,152.8,152.9
146,159.5,186.8,159.8,158.7,158.5,157.2,154.2,154.2,154.2,154.2,153.6,152.7,153.6,153.6,153.6,153.6,153.2,152.9,153
147,159.6,189,162,158.8,158.6,157.4,154.3,154.3,154.3,154.3,153.7,152.7,153.7,153.7,153.6,153.6,153.3,152.9,153
148,159.7,191.1,164.2,158.9,158.8,157.5,154.4,154.4,154.4,154.3,153.8,152.8,153.7,153.7,153.7,153.7,153.4,153,153.1
149,159.7,191.7,166.4,159,158.9,157.6,154.4,154.4,154.4,154.4,153.8,152.9,153.8,153.8,153.8,153.8,153.4,153,153.1
150,159.8,192.3,168.7,159.1,159,157.7,154.5,154.5,154.5,154.5,153.9,152.9,153.8,153.8,153.8,153.8,153.5,153.1,153.2
151,159.8,192.8,170.9,159.6,159.1,157.9,154.6,154.6,154.6,154.6,154,153,153.9,153.9,153.9,153.9,153.5,153.2,153.2
152,159.9,193.3,173.1,160,159.2,158,154.7,154.6,154.6,154.6,154,153,154,154,154,153.9,153.6,153.2,153.3
153,160,193.8,175.4,160.6,159.4,158.1,154.7,154.7,154.7,154.7,154.1,153.1,154,154,154,154,153.7,153.3,153.4
154,160,194.3,177.6,162.8,159.5,158.2,154.8,154.8,154.8,154.8,154.2,153.1,154.1,154.1,154.1,154.1,153.7,153.3,153.4
155,160.1,194.7,179.9,165.1,159.6,158.4,154.9,154.9,154.8,154.8,154.2,153.2,154.1,154.1,154.1,154.1,153.8,153.4,153.5
156,160.1,195.1,182.1,167.3,159.7,158.5,154.9,154.9,154.9,154.9,154.3,153.2,154.2,154.2,154.2,154.2,153.8,153.4,153.5
157,160.2,195.5,184.3,169.6,159.8,158.6,155,155,155,155,154.4,153.3,154.3,154.3,154.3,154.2,153.9,153.5,153.6
158,160.2,195.9,186,171.8,160,158.7,155.1,155.1,155.1,155,154.4,153.3,154.3,154.3,154.3,154.3,153.9,153.5,153.6
159,160.3,196.2,187,174,160.1,158.8,155.1,155.1,155.1,155.1,154.5,153.4,154.4,154.4,154.4,154.4,154,153.6,153.7
160,160.3,196.6,187.8,176.3,160.2,158.9,155.2,155.2,155.2,155.2,154.6,153.4,154.4,154.4,154.4,154.4,154.1,153.6,153.7
161,160.4,196.9,188.6,178.5,160.7,159.1,155.3,155.3,155.3,155.2,154.6,153.5,154.5,154.5,154.5,154.5,154.1,153.7,153.8
162,160.4,197.2,189.4,180.8,161.1,159.2,155.3,155.3,155.3,155.3,154.7,153.6,154.6,154.6,154.6,154.5,154.2,153.7,153.8
163,160.5,197.6,190.1,183,162.4,159.3,155.4,155.4,155.4,155.4,154.7,153.6,154.6,154.6,154.6,154.6,154.2,153.8,153.9
164,160.6,197.9,190.8,185.3,164.6,159.4,155.5,155.5,155.4,155.4,154.8,153.7,154.7,154.7,154.7,154.7,154.3,153.8,153.9
165,160.6,198.2,191.4,186.5,166.9,159.5,155.5,155.5,155.5,155.5,154.9,153.7,154.7,154.7,154.7,154.7,154.3,153.9,154
166,160.7,198.5,192,187.4,169.1,159.7,155.6,155.6,155.6,155.6,154.9,153.8,154.8,154.8,154.8,154.8,154.4,153.9,154
167,160.7,198.8,192.5,188.3,171.4,159.8,155.7,155.6,155.6,155.6,155,153.8,154.8,154.8,154.8,154.8,154.4,154,154.1
168,160.8,199.1,193,189.1,173.6,159.9,155.7,155.7,155.7,155.7,155,153.9,154.9,154.9,154.9,154.9,154.5,154,154.1
169,160.8,199.3,193.5,189.9,175.9,160,155.8,155.8,155.8,155.8,155.1,153.9,155,155,155,154.9,154.5,154.1,154.2
170,160.9,199.6,194,190.6,178.1,160.1,155.8,155.8,155.8,155.8,155.2,153.9,155,155,155,155,154.6,154.1,154.2
171,160.9,199.9,194.4,191.3,180.4,160.2,155.9,155.9,155.9,155.9,155.2,154,155.1,155.1,155.1,155.1,154.6,154.2,154.3
172,161,200.2,194.9,191.9,182.6,160.3,156,156,156,155.9,155.3,154,155.1,155.1,155.1,155.1,154.7,154.2,154.3
173,161,200.4,195.3,192.5,184.9,160.5,156,156,156,156,155.3,154.1,155.2,155.2,155.2,155.2,154.8,154.3,154.4
