2400MHz / Lb(0.50) dB
,h2(m),1000,1000,1000,1000,1000,10000,10000,10000,10000,10000,10000,20000,20000,20000,20000,20000,20000,20000
,h1(m),1.5,15,30,60,1000,1.5,15,30,60,1000,10000,1.5,15,30,60,1000,10000,20000
D (km),FSL
0,100.041186,100.048499,99.930157,99.796751,99.523641,-0.000000,120.077692,120.065851,120.052677,120.026268,119.156098,-0.000000,126.098943,126.092973,126.086335,126.073044,125.646320,120.053791,-0.000000
1,103.058284,103.068814,103.010157,102.944855,102.814376,100.062559,120.121106,120.109383,120.096339,120.070194,119.209576,100.067325,126.109852,126.103897,126.097275,126.084017,125.658397,120.097202,100.080983
2,107.041568,107.058477,107.035356,107.009379,106.958719,106.091097,120.248838,120.237446,120.224773,120.199392,119.366218,106.087792,126.142425,126.136513,126.129940,126.116775,125.694429,120.224903,106.101284
3,110.053455,110.077551,110.065873,110.053068,110.027740,109.620742,120.453752,120.442868,120.430787,120.406554,119.615368,109.609639,126.196173,126.190338,126.183843,126.170839,125.753828,120.429745,109.623327
4,112.358538,112.390089,112.383168,112.375699,112.360896,112.127218,120.725378,120.715141,120.703792,120.681023,119.941867,112.108427,126.270335,126.264588,126.258206,126.245414,125.835658,120.701166,112.122127
5,114.203951,114.243070,114.238684,114.233763,114.224191,114.073149,121.051486,121.041974,121.031433,121.010284,120.328662,114.046722,126.363871,126.358247,126.351995,126.339469,125.938657,121.026957,114.060247
6,115.736511,115.783258,115.780059,115.776585,115.769807,115.664475,121.419560,121.410825,121.401110,121.381690,120.759029,115.630340,126.475536,126.470054,126.463946,126.451745,126.061325,121.394596,115.643903
7,117.044269,117.098677,117.096339,117.093816,117.088833,117.011097,121.817986,121.810007,121.801125,121.783391,121.218332,116.969261,126.603933,126.598604,126.592677,126.580807,126.201987,121.792353,116.982920
8,118.183757,118.245844,118.244035,118.242163,118.238261,118.178700,122.236655,122.229391,122.221319,122.205192,121.694370,118.129122,126.747526,126.742366,126.736630,126.725140,126.358850,122.210193,118.142782
9,119.192832,119.262612,119.261228,119.259658,119.256578,119.209386,122.667210,122.660589,122.653278,122.638615,122.177692,119.152188,126.904770,126.899782,126.894238,126.883158,126.530050,122.639689,119.165761
10,120.097968,120.175445,120.174313,120.173014,120.170572,120.132179,123.102976,123.096990,123.090372,123.077053,122.661227,120.067300,127.074050,127.069250,127.063911,127.053245,126.713760,123.074279,120.080988
11,120.918375,121.003554,121.002572,121.001565,120.999504,120.967692,123.538931,123.533475,123.527457,123.515431,123.139874,120.895187,127.253835,127.249226,127.244093,127.233833,126.908194,123.508889,120.908791
12,121.668440,121.761317,121.760534,121.759656,121.757963,121.731093,123.971276,123.966334,123.960838,123.949917,123.610126,121.650946,127.442590,127.438172,127.433256,127.423410,127.111652,123.939753,121.664598
13,122.359312,122.459887,122.459192,122.458463,122.457007,122.433926,124.397259,124.392793,124.387817,124.377897,124.069620,122.346145,127.638917,127.634689,127.629990,127.620562,127.322533,124.364134,122.359796
14,122.999457,123.107722,123.107203,123.106539,123.105295,123.085201,124.815080,124.811019,124.806479,124.797385,124.516991,122.989853,127.841507,127.837453,127.832951,127.823934,127.539384,124.780216,123.003526
15,123.595903,123.711850,123.711378,123.710820,123.709773,123.691994,125.223543,125.219758,125.215584,125.207228,124.951356,123.589098,128.049105,128.045235,128.040926,128.032326,127.760899,125.186768,123.602756
16,124.154169,124.277787,124.277366,124.276919,124.275928,124.260116,125.621584,125.618255,125.614319,125.606718,125.372397,124.149638,128.260642,128.256939,128.252833,128.244610,127.985857,125.582951,124.163321
17,124.678798,124.810070,124.809746,124.809335,124.808493,124.794240,126.009006,126.005894,126.002429,125.995287,125.780112,124.676210,128.475095,128.471574,128.467652,128.459815,128.213236,125.968443,124.689923
18,125.173661,125.312566,125.312282,125.311927,125.311206,125.298189,126.385694,126.382799,126.379560,126.373138,126.174590,125.172689,128.691614,128.688257,128.684516,128.677043,128.442106,126.343035,125.186352
19,125.641954,125.788465,125.788189,125.787898,125.787260,125.775302,126.751568,126.748866,126.745865,126.739847,126.556321,125.642267,128.909413,128.906211,128.902639,128.895521,128.671695,126.706773,125.655952
20,126.086288,126.240370,126.240265,126.239902,126.239343,126.228295,127.106849,127.104233,127.101711,127.095924,126.925480,126.087772,129.127817,129.124759,129.121357,129.114554,128.901272,127.059802,126.101487
21,126.509056,126.670662,126.670547,126.670336,126.669805,126.659524,127.451393,127.449206,127.446633,127.441443,127.282730,126.511548,129.346253,129.343322,129.340073,129.333577,129.130266,127.402405,126.525282
22,126.912271,127.081337,127.081263,127.081070,127.080609,127.070982,127.786243,127.784053,127.781612,127.776787,127.628519,126.915593,129.564174,129.561376,129.558286,129.552086,129.358188,127.734839,126.929300
23,127.297655,127.474095,127.474037,127.473848,127.473417,127.464479,128.111150,128.109112,128.106846,128.102283,127.963313,127.301666,129.781175,129.778520,129.775550,129.769639,129.584627,128.057457,127.315392
24,127.666607,127.850297,127.850366,127.850193,127.849766,127.841528,128.426635,128.424726,128.422585,128.418331,128.287739,127.671322,129.996883,129.994335,129.991519,129.985868,129.809220,128.370631,127.685078
25,128.020599,128.211363,128.211467,128.211339,128.210881,128.203449,128.733108,128.731302,128.729287,128.725270,128.602127,128.025836,130.211030,130.208575,130.205875,130.200484,130.031699,128.674762,128.039618
26,128.360741,128.558316,128.558504,128.558358,128.557816,128.551455,129.030907,129.029208,129.027296,129.023495,128.906971,128.366449,130.423268,130.420921,130.418353,130.413171,130.251784,128.970191,128.380268
27,128.688105,128.892095,128.892346,128.892200,128.891481,128.886543,129.320407,129.318786,129.316964,129.313372,129.202867,128.694230,130.633457,130.631238,130.628763,130.623824,130.469347,129.257267,128.708057
28,129.003570,129.213384,129.213753,129.213552,129.212704,129.209702,129.601940,129.600405,129.598681,129.595287,129.490216,129.010097,130.841425,130.839268,130.836934,130.832161,130.684245,129.536421,129.023922
29,129.307996,129.522825,129.523403,129.523214,129.522392,129.521769,129.875883,129.874412,129.872793,129.869552,129.769362,129.314829,131.047014,131.044971,131.042588,131.038114,130.896276,129.807928,129.328720
30,129.602108,129.821083,129.822046,129.822069,129.821689,129.823429,130.142572,130.141171,130.139618,130.136498,130.040780,129.609266,131.250102,131.248135,131.246004,131.241565,131.105449,130.072144,129.623167
31,129.886618,130.109188,130.110816,130.111226,130.111447,130.115453,130.402345,130.400989,130.399479,130.396512,130.304789,129.893951,131.450698,131.448801,131.446662,131.442334,131.311682,130.329432,129.907949
32,130.162109,130.388224,130.390624,130.391498,130.392376,130.398398,130.655422,130.654119,130.652676,130.649849,130.561744,130.169788,131.648513,131.646680,131.644658,131.640631,131.515013,130.580047,130.183675
33,130.429148,130.659035,130.662181,130.663513,130.664951,130.672814,130.902147,130.900924,130.899541,130.896822,130.812022,130.437120,131.843714,131.842012,131.840032,131.836128,131.715190,130.824287,130.450947
34,130.688206,130.922107,130.925961,130.927682,130.929626,130.939233,131.142851,131.141645,131.140331,131.137683,131.055869,130.696179,132.036263,132.034544,132.032674,132.029029,131.912388,131.062472,130.710221
35,130.939774,131.177854,131.182364,131.184440,131.186813,131.198105,131.377692,131.376548,131.375298,131.372739,131.293662,130.948077,132.226061,132.224506,132.222667,132.219091,132.106663,131.294801,130.961966
36,131.184266,131.426610,131.431723,131.434135,131.436916,131.449853,131.606996,131.605886,131.604651,131.602203,131.525601,131.192594,132.413164,132.411621,132.409927,132.406409,132.297851,131.521616,131.206642
37,131.422075,131.668709,131.674432,131.677154,131.680317,131.694876,131.830967,131.829900,131.828688,131.826331,131.751979,131.430600,132.597569,132.596112,132.594323,132.590935,132.486291,131.743019,131.444587
38,131.653549,131.904456,131.910738,131.913777,131.917300,131.933518,132.049844,132.048807,132.047670,132.045343,131.973031,131.662027,132.779313,132.777860,132.776172,132.772908,132.671577,131.959345,131.676202
39,131.878998,132.134130,132.141012,132.144349,132.148251,132.166123,132.263833,132.262794,132.261679,132.259442,132.189019,131.887634,132.958310,132.956898,132.955312,132.952149,132.854052,132.170765,131.901782
40,132.098777,132.358067,132.365510,132.369144,132.373425,132.393009,132.473099,132.472109,132.471026,132.468834,132.400126,132.107498,133.134719,133.133348,133.131798,133.128756,133.033651,132.377469,132.121670
41,132.313135,132.576499,132.584534,132.588501,132.593105,132.614376,132.677886,132.676910,132.675846,132.673741,132.606568,132.321916,133.308484,133.307152,133.305728,133.302737,133.210424,132.579665,132.336105
42,132.522327,132.789670,132.798294,132.802550,132.807587,132.830564,132.878315,132.877383,132.876348,132.874258,132.808507,132.531310,133.479734,133.478440,133.476983,133.474132,133.384494,132.777564,132.545384
43,132.726587,132.997805,133.007055,133.011620,133.017021,133.041807,133.074597,133.073696,133.072651,133.070664,133.006171,132.735454,133.648429,133.647173,133.645797,133.643040,133.555886,132.971250,132.749748
44,132.926172,133.201153,133.211031,133.215913,133.221744,133.248335,133.266899,133.266014,133.265016,133.263032,133.199721,132.935075,133.814625,133.813430,133.812053,133.809329,133.724601,133.161174,132.949396
45,133.121264,133.399892,133.410421,133.415635,133.421828,133.450326,133.455356,133.454494,133.453503,133.451612,133.389315,133.130136,133.978405,133.977175,133.975892,133.973274,133.890758,133.346840,133.144598
46,133.312073,133.594224,133.605431,133.610968,133.617576,133.647997,133.640113,133.639257,133.638333,133.636379,133.575096,133.321012,134.139761,134.138605,134.137319,134.134745,134.054311,133.528873,133.335425
47,133.498799,133.784349,133.796225,133.802104,133.809140,133.841528,133.821301,133.820459,133.819521,133.817633,133.757231,133.507726,134.298778,134.297647,134.296357,134.293878,134.215426,133.707524,133.522185
48,133.681592,133.970410,133.982971,133.989220,133.996680,134.031099,133.999069,133.998235,133.997318,133.995461,133.935845,133.690551,134.455492,134.454373,134.453143,134.450695,134.374099,133.882690,133.705012
49,133.860600,134.152553,134.165853,134.172466,134.180375,134.216861,134.173518,134.172699,134.171770,134.169975,134.111040,133.869528,134.609918,134.608838,134.607643,134.605240,134.530391,134.054626,133.884112
50,134.036004,134.330957,134.345006,134.351987,134.360347,134.398994,134.344774,134.343964,134.343071,134.341258,134.282996,134.044926,134.762145,134.761091,134.759918,134.757575,134.684354,134.223136,134.059498
51,134.207939,134.505753,134.520570,134.527947,134.536802,134.577588,134.512962,134.512167,134.511263,134.509488,134.451789,134.216825,134.912202,134.911173,134.910024,134.907739,134.836063,134.388668,134.231470
52,134.376551,134.677084,134.692696,134.700443,134.709745,134.752829,134.678158,134.677372,134.676493,134.674729,134.617569,134.385408,135.060136,135.059127,135.057999,135.055771,134.985551,134.551217,134.400113
53,134.541929,134.845038,134.861453,134.869680,134.879437,134.924857,134.840491,134.839705,134.838844,134.837091,134.780362,134.550760,135.205986,135.205006,135.203908,135.201709,135.132867,134.710969,134.565505
54,134.704228,135.009768,135.027007,135.035604,135.045891,135.093675,135.000039,134.999275,134.998403,134.996679,134.940345,134.713014,135.349814,135.348849,135.347782,135.345615,135.278065,134.868120,134.727808
55,134.863558,135.171382,135.189495,135.198500,135.209331,135.259519,135.156904,135.156142,135.155290,135.153576,135.097593,134.872295,135.491654,135.490712,135.489654,135.487536,135.421206,135.022033,134.887445
56,135.020014,135.329971,135.348941,135.358410,135.369757,135.422470,135.311184,135.310430,135.309573,135.307869,135.252195,135.028700,135.631564,135.630631,135.629591,135.627517,135.562319,135.173642,135.043558
57,135.173703,135.485642,135.505497,135.515432,135.527341,135.582594,135.462928,135.462188,135.461350,135.459652,135.404230,135.182331,135.769557,135.768642,135.767628,135.765585,135.701463,135.322685,135.197318
58,135.324713,135.638481,135.659298,135.669666,135.682142,135.740018,135.612247,135.611512,135.610675,135.608989,135.553789,135.333282,135.905703,135.904791,135.903798,135.901795,135.838692,135.469301,135.348211
59,135.473152,135.788593,135.810342,135.821204,135.834198,135.894827,135.759221,135.758480,135.757666,135.755971,135.700948,135.481656,136.040021,136.039137,136.038157,136.036182,135.974026,135.613632,135.496706
60,135.619093,135.936052,135.958839,135.970156,135.983724,136.047108,135.903891,135.903150,135.902324,135.900675,135.845796,135.627527,136.172572,136.171701,136.170728,136.168790,136.107534,135.755621,135.642775
61,135.762644,136.080962,136.104671,136.116518,136.130819,136.196966,136.046345,136.045616,136.044794,136.043136,135.988372,135.770988,136.303377,136.302521,136.301572,136.299659,136.239246,135.895364,135.786389
62,135.903836,136.223352,136.248073,136.260455,136.275315,136.344392,136.186647,136.185921,136.185107,136.183460,136.128789,135.912100,136.432503,136.431663,136.430714,136.428819,136.369234,136.032994,135.927419
63,136.042769,136.363321,136.389115,136.402000,136.417463,136.489553,136.324876,136.324148,136.323340,136.321689,136.267062,136.050967,136.559955,136.559114,136.558237,136.556327,136.497462,136.168499,136.066250
64,136.179520,136.500946,136.527810,136.541252,136.557391,136.632491,136.461065,136.460348,136.459535,136.457909,136.403292,136.187627,136.685782,136.684959,136.684067,136.682207,136.624044,136.301991,136.202988
65,136.314160,136.636296,136.664249,136.678279,136.695094,136.773262,136.595292,136.594575,136.593761,136.592128,136.537528,136.322171,136.810032,136.809220,136.808332,136.806488,136.748985,136.433505,136.337649
66,136.446736,136.769415,136.798497,136.813059,136.830554,136.911941,136.727612,136.726890,136.726081,136.724450,136.669825,136.454656,136.932725,136.931924,136.931061,136.929226,136.872348,136.563108,136.470149
67,136.577316,136.900371,136.930671,136.945745,136.963940,137.048589,136.858075,136.857357,136.856547,136.854909,136.800232,136.585136,137.053906,137.053128,137.052215,137.050449,136.994131,136.690826,136.600837
68,136.705977,137.029239,137.060661,137.076407,137.095279,137.183275,136.986724,136.986009,136.985202,136.983570,136.928820,136.713689,137.173590,137.172799,137.171931,137.170172,137.114412,136.816776,136.729389
69,136.832747,137.156046,137.188667,137.205032,137.224638,137.316032,137.113615,137.112899,137.112099,137.110465,137.055618,136.840339,137.291847,137.291023,137.290184,137.288453,137.233201,136.940934,136.856056
70,136.957695,137.280860,137.314694,137.331667,137.352041,137.446921,137.238804,137.238091,137.237285,137.235658,137.180695,136.965176,137.408655,137.407877,137.407019,137.405290,137.350516,137.063380,136.980954
71,137.080878,137.403736,137.438845,137.456462,137.477595,137.575998,137.362334,137.361608,137.360801,137.359172,137.304093,137.088242,137.524095,137.523326,137.522490,137.520745,137.466414,137.184168,137.104195
72,137.202340,137.524717,137.561154,137.579344,137.601222,137.703345,137.484226,137.483521,137.482706,137.481075,137.425842,137.209606,137.638147,137.637387,137.636545,137.634847,137.580922,137.303327,137.225545
73,137.322126,137.643848,137.681510,137.700435,137.723137,137.828924,137.604553,137.603844,137.603037,137.601402,137.546012,137.329247,137.750894,137.750126,137.749288,137.747610,137.694073,137.420901,137.345218
74,137.440281,137.761171,137.800199,137.819785,137.843312,137.952846,137.723338,137.722629,137.721823,137.720183,137.664620,137.447271,137.862315,137.861569,137.860738,137.859062,137.805883,137.536938,137.463333
75,137.556850,137.876730,137.917121,137.937371,137.961717,138.075146,137.840626,137.839921,137.839111,137.837474,137.781710,137.563707,137.972473,137.971710,137.970938,137.969246,137.916394,137.651475,137.580115
76,137.671876,137.990569,138.032345,138.053291,138.078487,138.195913,137.956467,137.955757,137.954940,137.953296,137.897331,137.678596,138.081387,138.080681,138.079823,138.078180,138.025652,137.764535,137.694854
77,137.785396,138.102721,138.145925,138.167568,138.193644,138.315018,138.070869,138.070161,138.069352,138.067705,138.011509,137.791906,138.189099,138.188345,138.187518,138.185886,138.133625,137.876170,137.808348
78,137.897460,138.213239,138.257872,138.280261,138.307251,138.432708,138.183893,138.183178,138.182361,138.180720,138.124295,137.903875,138.295558,138.294833,138.294050,138.292386,138.240407,137.986420,137.920316
79,138.008076,138.322124,138.368220,138.391369,138.419213,138.548938,138.295561,138.294844,138.294022,138.292374,138.235704,138.014388,138.400869,138.400153,138.399361,138.397723,138.345954,138.095306,138.030896
80,138.117319,138.429457,138.477059,138.500944,138.529682,138.663688,138.405901,138.405184,138.404362,138.402714,138.345787,138.123465,138.505044,138.504326,138.503521,138.501912,138.450391,138.202860,138.140071
81,138.225208,138.535251,138.584426,138.609038,138.638693,138.777046,138.514943,138.514231,138.513412,138.511749,138.454555,138.231223,138.608097,138.607379,138.606595,138.604973,138.553635,138.309124,138.247874
82,138.331762,138.654273,138.690237,138.715679,138.746263,138.889051,138.622745,138.622029,138.621206,138.619536,138.562067,138.337594,138.710023,138.709306,138.708505,138.706923,138.655777,138.414127,138.354411
83,138.437042,138.835871,138.794577,138.820823,138.852413,138.999707,138.729299,138.728584,138.727760,138.726090,138.668331,138.442749,138.810865,138.810172,138.809379,138.807805,138.756802,138.517882,138.459567
84,138.541042,139.016894,138.897577,138.924625,138.957152,139.109075,138.834660,138.833947,138.833115,138.831441,138.773391,138.546542,138.910705,138.909968,138.909183,138.907533,138.856743,138.620437,138.563520
85,138.643812,139.197380,138.999202,139.026981,139.060556,139.217151,138.938837,138.938131,138.937293,138.935610,138.877272,138.649163,139.009441,139.008738,139.007956,139.006373,138.955682,138.721811,138.666224
86,138.745386,139.499743,139.099374,139.128008,139.162605,139.323996,139.041879,139.041159,139.040332,139.038646,138.979984,138.750588,139.107185,139.106481,139.105704,139.104131,139.053497,138.822031,138.767749
87,138.845794,139.834125,139.198233,139.227694,139.263373,139.429614,139.143790,139.143072,139.142234,139.140536,139.081548,138.850771,139.203933,139.203259,139.202458,139.200898,139.150368,138.921117,138.868052
88,138.945048,140.171763,139.339564,139.326207,139.362868,139.534084,139.244597,139.243885,139.243038,139.241336,139.182022,138.949865,139.299690,139.299042,139.298218,139.296673,139.246222,139.019091,138.967247
89,139.043190,140.512945,139.509760,139.423339,139.461101,139.637299,139.344359,139.343617,139.342782,139.341068,139.281420,139.047813,139.394537,139.393830,139.393107,139.391468,139.341095,139.116004,139.065305
90,139.140214,140.857799,139.679473,139.519240,139.558082,139.739423,139.443031,139.442310,139.441465,139.439745,139.379761,139.144662,139.488359,139.487674,139.486898,139.485348,139.435048,139.211863,139.162242
91,139.236178,141.206713,139.848758,139.629298,139.653884,139.840440,139.540687,139.539959,139.539114,139.537394,139.477043,139.240435,139.581291,139.580629,139.579840,139.578306,139.528013,139.306679,139.258134
92,139.331092,141.559913,140.017583,139.793605,139.748534,139.940363,139.637357,139.636612,139.635770,139.634031,139.573333,139.335156,139.673328,139.672653,139.671870,139.670336,139.620079,139.400497,139.352954
