125MHz / Lb(0.95) dB
,h2(m),1000,1000,1000,1000,1000,10000,10000,10000,10000,10000,10000,20000,20000,20000,20000,20000,20000,20000
,h1(m),1.5,15,30,60,1000,1.5,15,30,60,1000,10000,1.5,15,30,60,1000,10000,20000
D (km),FSL
0,74.375162,81.997010,81.878769,81.745475,81.472589,-0.000000,102.009407,101.997668,101.984605,101.958421,101.095267,-0.000000,108.030659,108.024789,108.018263,108.005196,107.585489,102.009755,-0.000000
1,77.392260,86.060685,85.897673,85.716786,85.356470,77.697830,102.069719,102.038078,102.002904,101.932500,99.716299,74.836411,108.045270,108.029352,108.011660,107.976263,106.856511,96.665131,74.717952
2,81.375573,90.947020,90.871981,90.788430,90.623292,86.619468,102.253671,102.222734,102.188348,102.119552,99.947406,81.073772,108.092314,108.076466,108.058853,108.023608,106.909233,96.823580,80.871031
3,84.387323,92.943070,94.231934,94.197998,94.130529,91.919129,102.547869,102.518067,102.484979,102.418729,100.316359,84.921663,108.170032,108.154327,108.136863,108.101922,106.997615,97.089572,84.491911
4,86.692441,91.286783,96.706956,96.685087,96.641538,95.279281,102.935572,102.907249,102.875822,102.812895,100.820548,87.731367,108.277317,108.261794,108.244557,108.210047,107.120265,97.443529,87.111528
5,88.537980,90.751896,98.658687,98.643071,98.612152,97.725327,103.397175,103.370548,103.341012,103.281867,101.417866,90.008799,108.412580,108.397317,108.380355,108.346406,107.275204,97.869374,89.228689
6,90.070489,91.368726,100.263262,100.251380,100.227812,99.618686,103.904739,103.881926,103.856571,103.805424,102.076005,91.938565,108.573873,108.558917,108.542276,108.509022,107.460003,98.350485,90.960589
7,91.378201,92.411100,101.623193,101.613790,101.595065,101.101030,104.437463,104.416358,104.392893,104.346022,102.769963,93.611645,108.758965,108.744351,108.728107,108.695602,107.671887,98.871194,92.446739
8,92.517767,94.393350,102.802065,102.794395,102.778905,102.366234,104.990799,104.971349,104.949742,104.906568,103.479413,95.131562,108.965383,108.951152,108.935339,108.903693,107.907846,99.418032,93.774731
9,93.526828,96.322327,103.842015,103.835444,103.822372,103.469506,105.553065,105.535155,105.515318,105.475609,104.189170,96.489138,109.190616,109.176790,109.161425,109.130718,108.164722,100.009729,94.969912
10,94.431892,98.069862,104.771912,104.766222,104.755012,104.447698,106.115362,106.098924,106.080731,106.044253,104.888469,97.766274,109.432048,109.418661,109.403779,109.374043,108.439402,100.619766,96.057051
11,95.252323,99.666210,105.611784,105.606093,105.594871,105.326332,106.671246,106.656167,106.639449,106.606041,105.569899,98.914966,109.686499,109.674260,109.659876,109.631122,108.728840,101.228543,97.054111
12,96.002425,101.134867,106.378776,106.373454,106.363121,106.123805,107.216344,107.202498,107.187104,107.156418,106.206141,100.017487,109.943335,109.931861,109.919106,109.893579,109.030151,101.830535,97.993973
13,96.693283,102.494682,107.083925,107.078910,107.069171,106.853859,107.747615,107.734904,107.720778,107.692561,106.819474,101.051491,110.209015,110.197974,110.185705,110.161136,109.340642,102.421729,98.857648
14,97.333413,103.760466,107.736423,107.731564,107.722268,107.527055,108.263373,108.251655,108.238625,108.212595,107.408904,102.000961,110.481572,110.470944,110.459141,110.435523,109.657887,103.032295,99.677297
15,97.929878,104.944800,108.343480,108.338763,108.329786,108.151588,108.762554,108.751769,108.739724,108.715646,107.974130,102.884639,110.759160,110.748961,110.737619,110.714962,109.979746,103.644353,100.464938
16,98.488145,106.057533,108.911042,108.906424,108.897538,108.734099,109.244813,109.234916,109.223655,109.201442,108.515595,103.769848,111.040233,111.030438,111.019569,110.997819,110.304261,104.238032,101.200489
17,99.012774,107.106990,109.443917,109.439282,109.430502,109.279886,109.710186,109.700895,109.690613,109.669875,109.034110,104.592724,111.323346,111.313973,111.303549,111.282713,110.629827,104.812849,101.890179
18,99.507637,108.100328,109.946046,109.941379,109.932610,109.793249,110.158978,110.150330,110.140736,110.121590,109.530560,105.360414,111.607325,111.598349,111.588361,111.568404,110.945128,105.368528,102.573190
19,99.975925,109.043483,110.420788,110.416063,110.407207,110.277906,110.591610,110.583569,110.574625,110.556726,110.006201,106.078866,111.891124,111.882521,111.872951,111.853850,111.257250,105.905205,103.231345
20,100.420248,109.941332,110.871053,110.866106,110.857103,110.712645,111.008723,111.001192,110.993119,110.976192,110.461965,106.753352,112.173859,112.165614,112.156457,112.138148,111.567139,106.452221,103.854030
21,100.843033,110.798466,111.298978,111.294001,111.284752,111.146075,111.389505,111.384343,111.378631,111.367161,110.899182,107.410380,112.454789,112.446901,112.438129,112.420592,111.874049,106.997366,104.444591
22,101.246233,111.618574,111.706867,111.701700,111.692200,111.558472,111.756171,111.751342,111.745953,111.735241,111.318914,108.041068,112.733308,112.725754,112.717368,112.700574,112.177373,107.522698,105.005867
23,101.631630,112.405051,112.096424,112.091020,112.081186,111.951803,112.084161,112.106235,112.101202,112.091107,111.722189,108.637018,113.008943,113.001714,112.993657,112.977583,112.476629,108.028964,105.575232
24,102.000582,113.160461,112.469154,112.463548,112.453316,112.327710,112.351113,112.449564,112.444819,112.435365,112.110147,109.201412,113.281274,113.274315,113.266623,113.251220,112.771415,108.516939,106.130180
25,102.354575,113.887659,112.799788,112.820582,112.809888,112.687625,112.528579,112.781919,112.777452,112.768535,112.483556,109.736940,113.549953,113.543322,113.535942,113.521181,113.061461,108.987453,106.660205
26,102.694717,114.588745,113.052039,113.163270,113.152036,113.032849,112.622657,113.103833,113.099608,113.091186,112.832548,110.246117,113.814802,113.808429,113.801357,113.787187,113.346521,109.441235,107.167318
27,103.022081,115.265768,113.238888,113.492646,113.480763,113.364460,112.660709,113.415793,113.411787,113.403832,113.159249,110.731154,114.075598,114.069505,114.062711,114.049144,113.626507,109.879028,107.653181
28,103.337546,115.920400,113.370970,113.809500,113.796970,113.683510,112.650918,113.718306,113.714516,113.707000,113.475308,111.193943,114.332244,114.326356,114.319873,114.306819,113.901339,110.305796,108.119309
29,103.641972,116.554357,113.456599,114.114698,114.101557,113.990893,112.600075,114.011836,114.008264,114.001122,113.781244,111.636183,114.584588,114.578995,114.572640,114.560192,114.170882,110.736022,108.567098
30,103.936083,117.169231,113.463706,114.409086,114.395563,114.287343,112.513244,114.296860,114.293458,114.286645,114.077702,112.059505,114.832672,114.827256,114.821301,114.809208,114.435230,111.151426,109.029956
31,104.220594,117.766691,113.306513,114.693638,114.679759,114.573674,112.344506,114.573784,114.570520,114.564052,114.365142,112.451036,115.076364,115.071257,115.065435,115.053755,114.694385,111.552806,109.481943
32,104.496084,118.348011,113.107175,114.969074,114.954844,114.850479,112.146652,114.842947,114.839842,114.833693,114.644053,112.826725,115.315814,115.310753,115.305202,115.294083,114.948476,111.940780,109.917168
33,104.763124,118.914254,112.870081,115.236012,115.221323,115.118341,111.923673,115.104797,115.101835,115.095964,114.914930,113.188052,115.550839,115.546057,115.540676,115.529962,115.197322,112.316016,110.336728
34,105.022182,119.466245,112.529568,115.494896,115.479681,115.377818,111.694950,115.359646,115.356834,115.351192,115.178123,113.535658,115.781664,115.777012,115.771860,115.761645,115.441221,112.679211,110.741486
35,105.273750,120.004905,112.158598,115.746192,115.730356,115.629388,111.500730,115.607829,115.605154,115.599751,115.434111,113.871152,116.008269,116.003862,115.998858,115.988962,115.680271,113.030861,111.132309
36,105.518241,120.531030,111.782924,115.990277,115.973771,115.873496,111.292179,115.849658,115.847068,115.841916,115.683178,114.194624,116.230685,116.226424,116.221683,116.212078,115.914434,113.371663,111.510050
37,105.756050,121.045405,111.454059,116.227558,116.210322,116.110558,111.071463,116.085429,116.082931,116.078002,115.925694,114.507361,116.449081,116.444990,116.440269,116.431008,116.144126,113.701971,111.875360
38,105.987525,121.548730,111.107698,116.458332,116.440309,116.340938,110.923937,116.315412,116.313049,116.308277,116.161967,114.809541,116.663443,116.659487,116.654965,116.646041,116.368989,114.022430,112.228981
39,106.212974,122.041636,110.833041,116.682959,116.664122,116.564994,110.785616,116.539837,116.537556,116.532993,116.392327,115.102251,116.869960,116.867109,116.863928,116.857078,116.589493,114.333459,112.571485
40,106.432752,122.524860,110.592574,116.901720,116.882028,116.783059,110.641175,116.758997,116.756804,116.752398,116.617012,115.385818,117.064483,117.061747,117.058663,117.052553,116.805604,114.635502,112.910281
41,106.647110,122.998918,110.362460,117.114963,117.094315,116.995348,110.538999,116.973086,116.970966,116.966754,116.836296,115.660757,117.255723,117.253034,117.250129,117.244185,117.017481,114.928996,113.249673
42,106.856302,123.464343,110.219913,117.322828,117.301281,117.202210,110.470933,117.182328,117.180288,117.176192,117.050389,115.927757,117.443684,117.441124,117.438246,117.432550,117.225294,115.214381,113.578923
43,107.060566,123.921636,110.073936,117.525647,117.503086,117.403890,110.400222,117.386923,117.384922,117.381023,117.259563,116.186686,117.625854,117.626016,117.623271,117.617779,117.429138,115.483982,113.898528
44,107.260143,124.371311,109.984589,117.723628,117.700064,117.600625,110.344922,117.587064,117.585155,117.581355,117.464022,116.438548,117.790790,117.807816,117.805121,117.799762,117.629078,115.744579,114.208920
45,107.455241,124.813813,109.921309,117.911389,117.892297,117.792607,110.334661,117.782937,117.781081,117.777461,117.663962,116.683445,117.938619,117.986520,117.983966,117.978809,117.817961,115.997970,114.510623
46,107.646055,125.249564,109.868943,118.067533,118.080084,117.980058,110.323776,117.974689,117.972940,117.969344,117.859560,116.921896,118.070808,118.162345,118.159837,118.154819,117.998978,116.245063,114.803872
47,107.832813,125.679068,109.870214,118.192845,118.263580,118.163166,110.313058,118.162498,118.160777,118.157327,118.051017,117.154075,118.185139,118.335250,118.332784,118.327949,118.176904,116.486248,115.089226
48,108.015556,126.102398,109.875628,118.290217,118.442948,118.342117,110.340908,118.346523,118.344861,118.341521,118.238484,117.380387,118.258124,118.505329,118.502963,118.498248,118.351766,116.721514,115.366990
49,108.194570,126.520262,109.903097,118.362103,118.618367,118.517069,110.375819,118.526896,118.525260,118.522054,118.422096,117.600981,118.312832,118.672659,118.670370,118.665782,118.523652,116.951264,115.637569
50,108.369984,126.932912,109.959541,118.410619,118.789959,118.688206,110.411891,118.703749,118.702185,118.699034,118.602053,117.816249,118.350768,118.837312,118.835085,118.830637,118.692641,117.175372,115.901091
51,108.541921,127.340595,110.022831,118.437581,118.957927,118.855627,110.453338,118.877237,118.875697,118.872654,118.778457,118.026364,118.373283,118.999350,118.997186,118.992872,118.858836,117.394443,116.158072
52,108.710534,127.743662,110.097384,118.444572,119.122284,119.019518,110.522188,119.047440,119.045958,119.042992,118.951480,118.231617,118.381602,119.158834,119.156728,119.152547,119.022295,117.608568,116.408725
53,108.875913,128.021617,110.198516,118.405965,119.283282,119.180025,110.592611,119.214499,119.213067,119.210177,119.121167,118.432170,118.376832,119.315837,119.313797,119.309716,119.183089,117.818033,116.653247
54,109.038214,128.415375,110.306888,118.258502,119.440937,119.337160,110.665055,119.378537,119.377125,119.374325,119.287714,118.628241,118.359978,119.470416,119.468441,119.464461,119.341294,118.023153,116.891961
55,109.197562,128.806666,110.422982,118.086381,119.595468,119.491158,110.739917,119.539627,119.538264,119.535536,119.451214,118.820036,118.331955,119.622643,119.620709,119.616844,119.496995,118.223223,117.125520
56,109.353972,129.195390,110.547027,117.891089,119.746877,119.642104,110.828647,119.697905,119.696567,119.693905,119.611772,119.001201,118.293600,119.772570,119.770686,119.766930,119.650237,118.419435,117.352837
57,109.507726,129.582100,110.678879,117.673944,119.895331,119.790071,110.925094,119.853431,119.852139,119.849541,119.769481,119.173377,118.245676,119.920247,119.918422,119.914758,119.801100,118.611542,117.575563
58,109.658692,129.966342,110.818290,117.392624,120.040889,119.935185,111.023577,120.006313,120.005049,120.002516,119.924447,119.342191,118.176072,120.065737,120.063961,120.060398,119.949657,118.799765,117.793110
59,109.807128,130.348636,110.966520,117.079138,120.183588,120.077535,111.124276,120.156636,120.155422,120.152934,120.076760,119.507782,118.083511,120.209109,120.207377,120.203899,120.095942,118.984294,117.999568
60,109.953083,130.728986,111.264488,116.744798,120.323634,120.217213,111.227330,120.304470,120.303271,120.300879,120.226520,119.670258,117.982499,120.350399,120.348701,120.345319,120.240042,119.165147,118.200491
61,110.096615,131.107422,111.618010,116.402306,120.461120,120.354322,111.332832,120.449919,120.448747,120.446396,120.373777,119.829741,117.873672,120.489657,120.488012,120.484707,120.382001,119.342486,118.397199
62,110.237805,131.484041,111.970393,116.101315,120.595891,120.488865,111.440816,120.593030,120.591891,120.589600,120.518656,119.986320,117.757597,120.626960,120.625342,120.622108,120.521907,119.516498,118.589596
63,110.376744,131.858969,112.321758,115.785275,120.728181,120.621003,111.556042,120.733896,120.732787,120.730539,120.661183,120.140131,117.634807,120.762308,120.760787,120.757590,120.659736,119.687216,118.778226
64,110.513492,132.232258,112.672209,115.455367,120.858112,120.750783,111.676134,120.872577,120.871484,120.869308,120.801467,120.291234,117.505807,120.895794,120.894282,120.891186,120.795616,119.854813,118.963242
65,110.648129,132.604014,113.021949,115.211644,120.985677,120.878263,111.797059,121.009131,121.008060,121.005921,120.939565,120.439743,117.383496,121.027451,121.025968,121.022935,120.929562,120.019369,119.144722
66,110.780702,132.974261,113.371083,114.966720,121.110859,121.003521,111.918761,121.143626,121.142582,121.140489,121.075543,120.585740,117.279781,121.157316,121.155880,121.152906,121.061652,120.180996,119.322629
67,110.911296,133.343135,113.719765,114.714052,121.233815,121.126618,112.052193,121.276134,121.275110,121.273051,121.209456,120.729298,117.171644,121.285454,121.283992,121.281131,121.191893,120.339769,119.497395
68,111.039977,133.710717,114.068135,114.542550,121.354573,121.247626,112.290823,121.406691,121.405691,121.403681,121.341383,120.870517,117.059423,121.411843,121.410446,121.407637,121.320375,120.495834,119.668706
69,111.166716,134.076835,114.416282,114.373762,121.473194,121.366581,112.528974,121.535357,121.534384,121.532413,121.471360,121.009438,116.943450,121.536571,121.535226,121.532489,121.447115,120.649215,119.836892
70,111.291706,134.441928,114.764408,114.208584,121.589674,121.483546,112.766008,121.662200,121.661241,121.659317,121.599462,121.146170,116.824028,121.659728,121.658387,121.655693,121.572144,120.800029,120.002126
71,111.414858,134.805666,115.112717,114.109769,121.704090,121.598577,113.000504,121.787250,121.786309,121.784421,121.725738,121.280771,116.701453,121.781285,121.779987,121.777321,121.695526,120.948363,120.164566
72,111.536315,135.168360,115.461133,114.012197,121.816370,121.711755,113.232426,121.910581,121.909651,121.907799,121.850223,121.413324,116.626618,121.901269,121.899984,121.897404,121.817297,121.094278,120.323994
73,111.656098,135.529985,115.809965,113.932265,121.912470,121.823053,113.461817,122.032211,122.031307,122.029488,121.972994,121.543826,116.552160,122.019748,122.018487,122.015966,121.937499,121.237852,120.480687
74,111.774249,135.890578,116.159299,113.894319,121.984144,121.932575,113.688752,122.152196,122.151312,122.149525,122.094073,121.672396,116.475612,122.136758,122.135522,122.133043,122.056155,121.379163,120.634814
75,111.890851,136.250301,116.509367,113.861977,122.032759,122.040359,113.913279,122.270586,122.269716,122.267968,122.213508,121.799075,116.397177,122.252298,122.251138,122.248680,122.173314,121.518275,120.786667
76,112.005846,136.608902,116.860202,113.850763,122.059482,122.146493,114.135444,122.387422,122.386561,122.384841,122.331352,121.923918,116.317052,122.366501,122.365277,122.362904,122.289030,121.655237,120.935455
77,112.119371,136.966706,117.211961,113.867782,122.065335,122.250863,114.355306,122.502729,122.501894,122.500206,122.447637,122.046903,116.235474,122.479244,122.478068,122.475741,122.403277,121.790129,121.082120
78,112.231422,137.323623,117.564800,113.893019,122.051221,122.353699,114.572909,122.616559,122.615732,122.614084,122.562419,122.168283,116.189331,122.590659,122.589545,122.587222,122.516157,121.923016,121.226401
79,112.342057,137.679757,117.918918,113.931147,122.017903,122.454964,114.788301,122.728947,122.728133,122.726510,122.675715,122.287947,116.150702,122.700758,122.699653,122.697390,122.627631,122.053941,121.368444
80,112.451302,138.035107,118.274338,113.994041,121.933131,122.554646,115.001539,122.839925,122.839127,122.837536,122.787580,122.405934,116.111123,122.809570,122.808468,122.806267,122.737829,122.175921,121.508267
81,112.559181,138.389675,118.631352,114.065042,121.753320,122.652828,115.212661,122.949526,122.948746,122.947173,122.898031,122.522364,116.070742,122.917124,122.916058,122.913878,122.846674,122.295062,121.645948
82,112.665741,138.743537,118.990055,114.144432,121.546194,122.749549,115.421699,123.057798,123.057030,123.055481,123.007127,122.637180,116.029709,123.023420,123.022355,123.020245,122.954263,122.412612,121.781585
83,112.771017,139.096728,119.350465,114.232238,121.312434,122.844820,115.628711,123.164749,123.163996,123.162478,123.114883,122.750562,115.988186,123.128527,123.127484,123.125416,123.060587,122.528596,121.915127
84,112.875013,139.449194,119.712801,114.331787,121.052787,122.938696,115.833732,123.270434,123.269687,123.268195,123.221342,122.862371,115.969447,123.232441,123.231421,123.229309,123.165684,122.643077,122.046755
85,112.977796,139.801078,120.077332,114.441742,120.729167,123.031181,116.036827,123.374865,123.374128,123.372658,123.326535,122.972805,115.961174,123.335205,123.334205,123.332188,123.269638,122.756081,122.176459
86,113.079369,140.152323,120.443966,114.639851,120.362653,123.122331,116.238023,123.478071,123.477359,123.475915,123.430474,123.081851,115.952627,123.436828,123.435848,123.433871,123.372335,122.867646,122.304333
87,113.179766,140.502971,120.813094,114.985619,119.969139,123.212156,116.437340,123.580093,123.579384,123.577958,123.533183,123.189466,115.943926,123.537374,123.536384,123.534449,123.473956,122.977803,122.430342
88,113.279025,140.853081,121.184516,115.335847,119.564397,123.300728,116.634829,123.680948,123.680245,123.678843,123.634721,123.295811,115.935195,123.636814,123.635815,123.633925,123.574435,123.086584,122.554637
89,113.377156,141.202626,121.558672,115.689213,119.195665,123.387959,116.830544,123.780658,123.779981,123.778595,123.735107,123.400837,115.926556,123.735153,123.734271,123.732314,123.673809,123.194046,122.677203
90,113.474191,141.551644,121.935422,116.045971,118.806686,123.473996,117.024489,123.879266,123.878593,123.877229,123.834360,123.504596,115.926208,123.832446,123.831524,123.829684,123.772145,123.300209,122.798072
91,113.570152,141.900149,122.314983,116.406131,118.424060,123.558828,117.216735,123.976770,123.976111,123.974774,123.932482,123.607117,115.941900,123.928748,123.927828,123.926032,123.869378,123.405088,122.917344
92,113.665067,142.248171,122.697358,116.769913,118.116504,123.642471,117.407337,124.072479,124.071105,124.068340,124.029541,123.708428,115.957730,124.024026,124.023123,124.021354,123.965601,123.508740,123.035011
