2400MHz / Lb(0.01) dB
,h2(m),1000,1000,1000,1000,1000,10000,10000,10000,10000,10000,10000,20000,20000,20000,20000,20000,20000,20000
,h1(m),1.5,15,30,60,1000,1.5,15,30,60,1000,10000,1.5,15,30,60,1000,10000,20000
D (km),FSL
0,-100.041186,-94.610480,-94.492138,-94.358732,-94.085622,0.000000,-114.639672,-114.627832,-114.614658,-114.588249,-113.718079,0.000000,-120.660924,-120.654954,-120.648316,-120.635025,-120.208300,-114.615771,0.000000
1,-103.058284,-97.150764,-97.142391,-97.132786,-97.113059,-96.845825,-114.675713,-114.672655,-114.669239,-114.662351,-114.402618,-99.495548,-120.670216,-120.668617,-120.666835,-120.663257,-120.541157,-117.678961,-99.679583
2,-107.041568,-100.705354,-100.707244,-100.709019,-100.713541,-101.274196,-114.778929,-114.776041,-114.772817,-114.766327,-114.523039,-105.246253,-120.696479,-120.694912,-120.693166,-120.689656,-120.569929,-117.781080,-105.528656
3,-110.053455,-103.525585,-103.527156,-103.529042,-103.533011,-104.024121,-114.944898,-114.942248,-114.939309,-114.933364,-114.713911,-108.396145,-120.739774,-120.738255,-120.736558,-120.733148,-120.616722,-117.938283,-108.923218
4,-112.358538,-105.727819,-105.729928,-105.732474,-105.737661,-106.122338,-115.165874,-115.163511,-115.160904,-115.155619,-114.962123,-110.562723,-120.799492,-120.798020,-120.796387,-120.793094,-120.680799,-118.145405,-111.276686
5,-114.203951,-107.511253,-107.513566,-107.516083,-107.521360,-107.823763,-115.432828,-115.430770,-115.428503,-115.423903,-115.257366,-112.169011,-120.874828,-120.873422,-120.871855,-120.868702,-120.761206,-118.393247,-113.010556
6,-115.736511,-109.003878,-109.005949,-109.008323,-109.013226,-109.258032,-115.737078,-115.735174,-115.733047,-115.728864,-115.588643,-113.439279,-120.964844,-120.963509,-120.962011,-120.959023,-120.856850,-118.672486,-114.425092
7,-117.044269,-110.284817,-110.286791,-110.289053,-110.293632,-110.505258,-116.070115,-116.068509,-116.066709,-116.063123,-115.945816,-114.491335,-121.068504,-121.067241,-121.065831,-121.062994,-120.966529,-118.974455,-115.602564
8,-118.183757,-111.405872,-111.407698,-111.409859,-111.414021,-111.599927,-116.423147,-116.421806,-116.420312,-116.417330,-116.320213,-115.370697,-121.184680,-121.183493,-121.182170,-121.179508,-121.088981,-119.291798,-116.587718
9,-119.192832,-112.402190,-112.403939,-112.405850,-112.409723,-112.575045,-116.789428,-116.788299,-116.787082,-116.784605,-116.704871,-116.142575,-121.312245,-121.311131,-121.309889,-121.307411,-121.222900,-119.607717,-117.439943
10,-120.097968,-113.298629,-113.300197,-113.301953,-113.305612,-113.454202,-117.163375,-117.162469,-117.161489,-117.159451,-117.094329,-116.812475,-121.450019,-121.448985,-121.447828,-121.445524,-121.367019,-119.923470,-118.189826
11,-120.918375,-114.113238,-114.115234,-114.117483,-114.121794,-114.254599,-117.540615,-117.539863,-117.539064,-117.537469,-117.484400,-117.423066,-121.596911,-121.595928,-121.594854,-121.592708,-121.520097,-120.240109,-118.860260
12,-121.668440,-114.859715,-114.861765,-114.863976,-114.868291,-114.989167,-117.917694,-117.917104,-117.916443,-117.915178,-117.873920,-117.969653,-121.752537,-121.751571,-121.750491,-121.748316,-121.680950,-120.555059,-119.455030
13,-122.359312,-115.548706,-115.550756,-115.553005,-115.557305,-115.667921,-118.291975,-118.291539,-118.291041,-118.290074,-118.258520,-118.469941,-121.915101,-121.914209,-121.913216,-121.911203,-121.848452,-120.866448,-120.002823
14,-122.999457,-116.188312,-116.190488,-116.192738,-116.197091,-116.298792,-118.661612,-118.661289,-118.660913,-118.660121,-118.636653,-118.937742,-122.083611,-122.082779,-122.081856,-122.079996,-122.021568,-121.164826,-120.501150
15,-123.595903,-116.785289,-116.787502,-116.789831,-116.794292,-116.888081,-119.025275,-119.024975,-119.024668,-119.024036,-119.007156,-119.376440,-122.257098,-122.256334,-122.255476,-122.253773,-122.199358,-121.453151,-120.953598
16,-124.154169,-117.344955,-117.347238,-117.349684,-117.354177,-117.441020,-119.381728,-119.381638,-119.381308,-119.380904,-119.369349,-119.779759,-122.434727,-122.434016,-122.433233,-122.431655,-122.380919,-121.735714,-121.377840
17,-124.678798,-117.871693,-117.874117,-117.876635,-117.881302,-117.961849,-119.730541,-119.730466,-119.730365,-119.729936,-119.722840,-120.162844,-122.615677,-122.615034,-122.614310,-122.612866,-122.565484,-122.012287,-121.777386
18,-125.173661,-118.369248,-118.371781,-118.374414,-118.379277,-118.454055,-120.071409,-120.071344,-120.071251,-120.071127,-120.067334,-120.527985,-122.799256,-122.798667,-122.798002,-122.796678,-122.753132,-122.282698,-122.142947
19,-125.641954,-118.840715,-118.843346,-118.846125,-118.851187,-118.920715,-120.403999,-120.403952,-120.403901,-120.403782,-120.402957,-120.877039,-122.984806,-122.984266,-122.983652,-122.982445,-122.942621,-122.546940,-122.484832
20,-126.086288,-119.288617,-119.291531,-119.294342,-119.299636,-119.381145,-120.728336,-120.728218,-120.728458,-120.728220,-120.729518,-121.211653,-123.171752,-123.171252,-123.170693,-123.169574,-123.133159,-122.800281,-122.810378
21,-126.509056,-119.715274,-119.718309,-119.721393,-119.726905,-119.805607,-121.047029,-121.046929,-121.046670,-121.046109,-121.047361,-121.530660,-123.359589,-123.359119,-123.358603,-123.357571,-123.324259,-123.044803,-123.121214
22,-126.912271,-120.122625,-120.125851,-120.129095,-120.134897,-120.211163,-121.358058,-121.357834,-121.357579,-121.357120,-121.356639,-121.836567,-123.547827,-123.547395,-123.546930,-123.545982,-123.515491,-123.283823,-123.418712
23,-127.297655,-120.512321,-120.515734,-120.519140,-120.525221,-120.599510,-121.660729,-121.660550,-121.660348,-121.659915,-121.657546,-122.131760,-123.736089,-123.735706,-123.735262,-123.734398,-123.706478,-123.517506,-123.695480
24,-127.666607,-120.885673,-120.889405,-120.893003,-120.899361,-120.972068,-121.955427,-121.955280,-121.955095,-121.954750,-121.950466,-122.417090,-123.924018,-123.923655,-123.923265,-123.922468,-123.896877,-123.746028,-123.958587
25,-128.020599,-121.244047,-121.248027,-121.251859,-121.258476,-121.330081,-122.242443,-122.242306,-122.242147,-122.241839,-122.235516,-122.693219,-124.111348,-124.110994,-124.110629,-124.109911,-124.086419,-123.969584,-124.212171
26,-128.360741,-121.588387,-121.592691,-121.596705,-121.603522,-121.674696,-122.521997,-122.521884,-122.521736,-122.521460,-122.514442,-122.960837,-124.297728,-124.297400,-124.297082,-124.296394,-124.274812,-124.188326,-124.457055
27,-128.688105,-121.919503,-121.924142,-121.928354,-121.935239,-122.006855,-122.794363,-122.794253,-122.794111,-122.793874,-122.787642,-123.220519,-124.483005,-124.482732,-124.482420,-124.481805,-124.461906,-124.402411,-124.693904
28,-129.003570,-122.237840,-122.242916,-122.247262,-122.254203,-122.327497,-123.059786,-123.059692,-123.059568,-123.059372,-123.053742,-123.472759,-124.666987,-124.666705,-124.666456,-124.665842,-124.647530,-124.611632,-124.923319
29,-129.307996,-122.543626,-122.549334,-122.553897,-122.561133,-122.637419,-123.318556,-123.318460,-123.318368,-123.318181,-123.312968,-123.717942,-124.849491,-124.849253,-124.848870,-124.848412,-124.831449,-124.814414,-125.145853
30,-129.602108,-122.837003,-122.843796,-122.848949,-122.857272,-122.937269,-123.570933,-123.570848,-123.570756,-123.570555,-123.565675,-123.956561,-125.030372,-125.030142,-125.029942,-125.029370,-125.013633,-125.013163,-125.356629
31,-129.886618,-123.118800,-123.127462,-123.133710,-123.143721,-123.227786,-123.817191,-123.817094,-123.816983,-123.816813,-123.812086,-124.190020,-125.209594,-125.209377,-125.209103,-125.208500,-125.193957,-125.208056,-125.560442
32,-130.162109,-123.390495,-123.401626,-123.409321,-123.421330,-123.509500,-124.057486,-124.057390,-124.057287,-124.057143,-124.052465,-124.417758,-125.386860,-125.386649,-125.386419,-125.385995,-125.372417,-125.399192,-125.758928
33,-130.429148,-123.653455,-123.667311,-123.676582,-123.690594,-123.782935,-124.292108,-124.292043,-124.291948,-124.291802,-124.287103,-124.639811,-125.562289,-125.562160,-125.561913,-125.561481,-125.548730,-125.586707,-125.952451
34,-130.688206,-123.908414,-123.925090,-123.935927,-123.951934,-124.048600,-124.521334,-124.521242,-124.521166,-124.520993,-124.516177,-124.856214,-125.735834,-125.735615,-125.735422,-125.735136,-125.723006,-125.770759,-126.141272
35,-130.939774,-124.155809,-124.175341,-124.187746,-124.205717,-124.306925,-124.745281,-124.745209,-124.745150,-124.744972,-124.739992,-125.067839,-125.907331,-125.907232,-125.907019,-125.906686,-125.895285,-125.951418,-126.325664
36,-131.184266,-124.395909,-124.418336,-124.432337,-124.452304,-124.558316,-124.964231,-124.964154,-124.964066,-124.963910,-124.958692,-125.274318,-126.076828,-126.076696,-126.076571,-126.076189,-126.065342,-126.128872,-126.505899
37,-131.422075,-124.628962,-124.654402,-124.670031,-124.692038,-124.803152,-125.178350,-125.178278,-125.178171,-125.178027,-125.172513,-125.476321,-126.244286,-126.244193,-126.243920,-126.243568,-126.233477,-126.303115,-126.682162
38,-131.653549,-124.855190,-124.883730,-124.901058,-124.925167,-125.041763,-125.387842,-125.387766,-125.387696,-125.387503,-125.381642,-125.673659,-126.409713,-126.409582,-126.409364,-126.409039,-126.399265,-126.474347,-126.854690
39,-131.878998,-125.074796,-125.106631,-125.125720,-125.152044,-125.274478,-125.592883,-125.592772,-125.592688,-125.592513,-125.586293,-125.866933,-126.573470,-126.573196,-126.572872,-126.572384,-126.562984,-126.642631,-127.023643
40,-132.098777,-125.288045,-125.323314,-125.344249,-125.372893,-125.501603,-125.793606,-125.793514,-125.793427,-125.793230,-125.786611,-126.056103,-126.736445,-126.736176,-126.735850,-126.735254,-126.724557,-126.808048,-127.188483
41,-132.313135,-125.495107,-125.534030,-125.556945,-125.587968,-125.723323,-125.990231,-125.990124,-125.990025,-125.989849,-125.982773,-126.241358,-126.897258,-126.896995,-126.896760,-126.896143,-126.883979,-126.970707,-127.348808
42,-132.522327,-125.696164,-125.738946,-125.763899,-125.797535,-125.939968,-126.182853,-126.182763,-126.182662,-126.182442,-126.174907,-126.422993,-127.056025,-127.055768,-127.055463,-127.054916,-127.041352,-127.130720,-127.506137
43,-132.726587,-125.891685,-125.938283,-125.965405,-126.001715,-126.151760,-126.371661,-126.371578,-126.371439,-126.371265,-126.363209,-126.600734,-127.212678,-127.212428,-127.212171,-127.211648,-127.196668,-127.288730,-127.660596
44,-132.926172,-126.095789,-126.132213,-126.161630,-126.200818,-126.358916,-126.556804,-126.556711,-126.556592,-126.556366,-126.547812,-126.775177,-127.367252,-127.367036,-127.366745,-127.366193,-127.349896,-127.444613,-127.812286
45,-133.121264,-126.314284,-126.320891,-126.352744,-126.394888,-126.561607,-126.738395,-126.738301,-126.738164,-126.737981,-126.728847,-126.946218,-127.519816,-127.519534,-127.519308,-127.518802,-127.502090,-127.597656,-127.961369
46,-133.312073,-126.545022,-126.504484,-126.538893,-126.584199,-126.760039,-126.916562,-126.916453,-126.916358,-126.916063,-126.906433,-127.114162,-127.670338,-127.670106,-127.669846,-127.669323,-127.652876,-127.748351,-128.107841
47,-133.498799,-126.786191,-126.683114,-126.720235,-126.768875,-126.954381,-127.091420,-127.091304,-127.091173,-127.090898,-127.080715,-127.278959,-127.818888,-127.818656,-127.818362,-127.817881,-127.801677,-127.896880,-128.251904
48,-133.681592,-127.036180,-126.856908,-126.896913,-126.949049,-127.144805,-127.263104,-127.262976,-127.262843,-127.262555,-127.251797,-127.440818,-127.965486,-127.965242,-127.964983,-127.964478,-127.948465,-128.043096,-128.393614
49,-133.860600,-127.293467,-127.025909,-127.068939,-127.124770,-127.331345,-127.431699,-127.431568,-127.431403,-127.431135,-127.419763,-127.599730,-128.110130,-128.109902,-128.109652,-128.109141,-128.093282,-128.187184,-128.533097
50,-134.036004,-127.556250,-127.189772,-127.235978,-127.295673,-127.513679,-127.597320,-127.597180,-127.597031,-127.596706,-127.584773,-127.755903,-128.252894,-128.252670,-128.252418,-128.251917,-128.236165,-128.328912,-128.670312
51,-134.207939,-127.821633,-127.347514,-127.397060,-127.460813,-127.690689,-127.760079,-127.759937,-127.759759,-127.759434,-127.746889,-127.909371,-128.393794,-128.393573,-128.393322,-128.392832,-128.377165,-128.468654,-128.805466
52,-134.376551,-128.100785,-127.500326,-127.553340,-127.621277,-127.863692,-127.920042,-127.919892,-127.919721,-127.919371,-127.906245,-128.060267,-128.532861,-128.532640,-128.532389,-128.531910,-128.516300,-128.606359,-128.938589
53,-134.541929,-128.387026,-127.648679,-127.705434,-127.777754,-128.033359,-128.077326,-128.077162,-128.076991,-128.076618,-128.062854,-128.208639,-128.670124,-128.669913,-128.669668,-128.669177,-128.653604,-128.742165,-129.069708
54,-134.704228,-128.672193,-127.791486,-127.852023,-127.928965,-128.198296,-128.232001,-128.231843,-128.231646,-128.231269,-128.216878,-128.354577,-128.805632,-128.805417,-128.805182,-128.804682,-128.789115,-128.876208,-129.198914
55,-134.863558,-128.957902,-127.930416,-127.994952,-128.076733,-128.360479,-128.384160,-128.383990,-128.383796,-128.383399,-128.368381,-128.498170,-128.939405,-128.939196,-128.938951,-128.938460,-128.922878,-129.007887,-129.326533
56,-135.020014,-129.240958,-128.064585,-128.133340,-128.220124,-128.519015,-128.533890,-128.533715,-128.533503,-128.533084,-128.517442,-128.640339,-129.071495,-129.071277,-129.071031,-129.070545,-129.054910,-129.138010,-129.451803
57,-135.173703,-129.525108,-128.195071,-128.268238,-128.360289,-128.675038,-128.681236,-128.681062,-128.680853,-128.680413,-128.664128,-128.781070,-129.201901,-129.201684,-129.201446,-129.200955,-129.185255,-129.266310,-129.575689
58,-135.324713,-129.802217,-128.320984,-128.398703,-128.496222,-128.827551,-128.826299,-128.826118,-128.825896,-128.825440,-128.808521,-128.919592,-129.330683,-129.330454,-129.330219,-129.329733,-129.313957,-129.392882,-129.697708
59,-135.473152,-130.071252,-128.442674,-128.525191,-128.628338,-128.977051,-128.969152,-128.968954,-128.968741,-128.968251,-128.950686,-129.055984,-129.457853,-129.457637,-129.457398,-129.456905,-129.441024,-129.517849,-129.818777
60,-135.619093,-130.332699,-128.560979,-128.648456,-128.757524,-129.124402,-129.109831,-129.109621,-129.109386,-129.108915,-129.090705,-129.190298,-129.583461,-129.583243,-129.582995,-129.582508,-129.566512,-129.641116,-129.938416
61,-135.762644,-130.575316,-128.675029,-128.767522,-128.882872,-129.268619,-129.248418,-129.248210,-129.247965,-129.247461,-129.228610,-129.322603,-129.707521,-129.707304,-129.707065,-129.706570,-129.690442,-129.762749,-130.056445
62,-135.903836,-130.801857,-128.785699,-128.882474,-129.004147,-129.409631,-129.384971,-129.384754,-129.384506,-129.383990,-129.364504,-129.452942,-129.830091,-129.829876,-129.829622,-129.829116,-129.812875,-129.882853,-130.172723
63,-136.042769,-131.015971,-128.893094,-128.994488,-129.122777,-129.548918,-129.519562,-129.519333,-129.519080,-129.518539,-129.498397,-129.581398,-129.951170,-129.950941,-129.950743,-129.950193,-129.933767,-130.001394,-130.287554
64,-136.179520,-131.214687,-128.996922,-129.103271,-129.238493,-129.686127,-129.652220,-129.651994,-129.651725,-129.651187,-129.630383,-129.707994,-130.070798,-130.070575,-130.070349,-130.069819,-130.053223,-130.118456,-130.401026
65,-136.314160,-131.390692,-129.096805,-129.208282,-129.350660,-129.820626,-129.783020,-129.782784,-129.782504,-129.781937,-129.760503,-129.832801,-130.189016,-130.188791,-130.188556,-130.188017,-130.171238,-130.234054,-130.513123
66,-136.446736,-131.540849,-129.192765,-129.309457,-129.459219,-129.952457,-129.912010,-129.911760,-129.911475,-129.910891,-129.888809,-129.955863,-130.305839,-130.305614,-130.305390,-130.304835,-130.287867,-130.348228,-130.623737
67,-136.577316,-131.669925,-129.284879,-129.407167,-129.564294,-130.081652,-130.039238,-130.038983,-130.038688,-130.038077,-130.015342,-130.077218,-130.421305,-130.421092,-130.420806,-130.420294,-130.403103,-130.460987,-130.733181
68,-136.705977,-131.780719,-129.373362,-129.502231,-129.666369,-130.208801,-130.164740,-130.164481,-130.164179,-130.163556,-130.140170,-130.196930,-130.535424,-130.535185,-130.534933,-130.534403,-130.517013,-130.572429,-130.841120
69,-136.832747,-131.880956,-129.459190,-129.594823,-129.766619,-130.335214,-130.288572,-130.288303,-130.287999,-130.287357,-130.263315,-130.315011,-130.648259,-130.647977,-130.647741,-130.647216,-130.629603,-130.682509,-130.947773
70,-136.957695,-131.962941,-129.541323,-129.683913,-129.863621,-130.459346,-130.410783,-130.410509,-130.410191,-130.409539,-130.384843,-130.431538,-130.759782,-130.759537,-130.759271,-130.758726,-130.740882,-130.791289,-131.053225
71,-137.080878,-132.027729,-129.619839,-129.769624,-129.957455,-130.581237,-130.531415,-130.531121,-130.530793,-130.530123,-130.504791,-130.546541,-130.870073,-130.869826,-130.869570,-130.868987,-130.850902,-130.898807,-131.157568
72,-137.202340,-132.076652,-129.694747,-129.851859,-130.048020,-130.700954,-130.650484,-130.650204,-130.649861,-130.649172,-130.623184,-130.660080,-130.979101,-130.978855,-130.978583,-130.978025,-130.959686,-131.005075,-131.260558
73,-137.322126,-132.111220,-129.765921,-129.930715,-130.135501,-130.818444,-130.768062,-130.767771,-130.767428,-130.766720,-130.740089,-130.772119,-131.086949,-131.086685,-131.086407,-131.085849,-131.067258,-131.110124,-131.362381
74,-137.440281,-132.133001,-129.833620,-130.006221,-130.219847,-130.933803,-130.884168,-130.883870,-130.883521,-130.882793,-130.855520,-130.882759,-131.193590,-131.193340,-131.193058,-131.192482,-131.173630,-131.213986,-131.463128
75,-137.556850,-132.143541,-129.897729,-130.078335,-130.301007,-131.047051,-130.998844,-130.998544,-130.998183,-130.997445,-130.969517,-130.992018,-131.299084,-131.298807,-131.298576,-131.297965,-131.278839,-131.316684,-131.562996
76,-137.671876,-132.144283,-129.958301,-130.147135,-130.379092,-131.158258,-131.112137,-131.111827,-131.111452,-131.110692,-131.082124,-131.099927,-131.403444,-131.403216,-131.402889,-131.402308,-131.382925,-131.418228,-131.661313
77,-137.785396,-132.147753,-130.016698,-130.214012,-130.456002,-131.269477,-131.224055,-131.223739,-131.223366,-131.222591,-131.193367,-131.206449,-131.506708,-131.506425,-131.506120,-131.505531,-131.485852,-131.518659,-131.758806
78,-137.897460,-132.151829,-130.071803,-130.277842,-130.530192,-131.379121,-131.334654,-131.334326,-131.333939,-131.333155,-131.303291,-131.311808,-131.608823,-131.608561,-131.608291,-131.607654,-131.587711,-131.618003,-131.855186
79,-138.008076,-132.249696,-130.123519,-130.338485,-130.601372,-131.486929,-131.443955,-131.443619,-131.443221,-131.442418,-131.411911,-131.415889,-131.709891,-131.709629,-131.709342,-131.708713,-131.688452,-131.716272,-131.950588
80,-138.117319,-132.343444,-130.171927,-130.395983,-130.669679,-131.592874,-131.551983,-131.551643,-131.551238,-131.550422,-131.519272,-131.518699,-131.809918,-131.809648,-131.809339,-131.808723,-131.788196,-131.814418,-132.044974
81,-138.225208,-132.433529,-130.217061,-130.450377,-130.735133,-131.697031,-131.658768,-131.658427,-131.658019,-131.657177,-131.625385,-131.620350,-131.908917,-131.908639,-131.908345,-131.907699,-131.886857,-131.911744,-132.138359
82,-138.331762,-132.523816,-130.258836,-130.501688,-130.797736,-131.799428,-131.764363,-131.764014,-131.763596,-131.762736,-131.730306,-131.720769,-132.006879,-132.006595,-132.006274,-132.005654,-131.984520,-132.008036,-132.230851
83,-138.437042,-132.626439,-130.297336,-130.549868,-130.857500,-131.900061,-131.868762,-131.868408,-131.867984,-131.867112,-131.834041,-131.820120,-132.103843,-132.103577,-132.103257,-132.102631,-132.081170,-132.103301,-132.322306
84,-138.541042,-132.726842,-130.385911,-130.595064,-130.914422,-131.998979,-131.972014,-131.971658,-131.971221,-131.970334,-131.936631,-131.918252,-132.199891,-132.199573,-132.199255,-132.198536,-132.176833,-132.197579,-132.412898
