15500MHz / Lb(0.05) dB
,h2(m),1000,1000,1000,1000,1000,10000,10000,10000,10000,10000,10000,20000,20000,20000,20000,20000,20000,20000
,h1(m),1.5,15,30,60,1000,1.5,15,30,60,1000,10000,1.5,15,30,60,1000,10000,20000
D (km),FSL
0,116.2,112.1,112,111.9,111.6,0,132.2,132.2,132.2,132.1,131.2,0,138.2,138.2,138.2,138.2,137.7,132.1,0
1,119.3,114.8,114.8,114.7,114.7,113.9,132.2,132.2,132.2,132.2,131.8,115.9,138.2,138.2,138.2,138.2,138,134.5,116
2,123.2,118.4,118.4,118.4,118.4,118.7,132.3,132.3,132.3,132.3,131.9,121.7,138.3,138.3,138.2,138.2,138,134.6,121.9
3,126.3,121.3,121.3,121.3,121.3,121.7,132.5,132.5,132.5,132.5,132.1,124.9,138.3,138.3,138.3,138.3,138.1,134.8,125.3
4,128.6,123.6,123.6,123.6,123.6,123.9,132.8,132.7,132.7,132.7,132.4,127.2,138.4,138.4,138.4,138.4,138.1,135,127.7
5,130.4,125.4,125.4,125.4,125.4,125.7,133,133,133,133,132.7,128.9,138.4,138.4,138.4,138.4,138.2,135.3,129.5
6,131.9,127,127,127,127,127.2,133.4,133.3,133.3,133.3,133.1,130.2,138.5,138.5,138.5,138.5,138.3,135.6,131
7,133.2,128.3,128.3,128.3,128.3,128.5,133.7,133.7,133.7,133.7,133.4,131.3,138.6,138.6,138.6,138.6,138.4,135.9,132.2
8,134.4,129.5,129.5,129.5,129.5,129.6,134.1,134.1,134.1,134.1,133.8,132.3,138.8,138.8,138.8,138.8,138.6,136.3,133.2
9,135.4,130.5,130.5,130.5,130.5,130.6,134.5,134.5,134.4,134.4,134.2,133.1,138.9,138.9,138.9,138.9,138.7,136.6,134.1
10,136.3,131.4,131.4,131.4,131.4,131.6,134.8,134.8,134.8,134.8,134.7,133.8,139.1,139,139,139,138.9,136.9,134.9
11,137.1,132.3,132.3,132.3,132.3,132.4,135.2,135.2,135.2,135.2,135.1,134.5,139.2,139.2,139.2,139.2,139,137.3,135.6
12,137.9,133.1,133.1,133.1,133.1,133.2,135.6,135.6,135.6,135.6,135.5,135.1,139.4,139.4,139.4,139.4,139.2,137.6,136.2
13,138.6,133.8,133.8,133.8,133.8,133.9,136,136,136,136,135.9,135.6,139.5,139.5,139.5,139.5,139.4,138,136.8
14,139.2,134.5,134.5,134.5,134.5,134.6,136.4,136.4,136.4,136.4,136.3,136.1,139.7,139.7,139.7,139.7,139.6,138.3,137.4
15,139.8,135.1,135.1,135.1,135.1,135.2,136.8,136.8,136.8,136.8,136.7,136.6,139.9,139.9,139.9,139.9,139.7,138.6,137.9
16,140.4,135.7,135.7,135.7,135.7,135.8,137.2,137.2,137.1,137.1,137,137.1,140.1,140.1,140.1,140.1,139.9,138.9,138.3
17,140.9,136.3,136.3,136.3,136.3,136.4,137.5,137.5,137.5,137.5,137.4,137.5,140.3,140.3,140.3,140.3,140.1,139.2,138.7
18,141.4,136.8,136.8,136.8,136.8,136.9,137.9,137.9,137.9,137.9,137.8,137.9,140.5,140.5,140.5,140.5,140.3,139.5,139.1
19,141.8,137.3,137.3,137.3,137.4,137.4,138.2,138.2,138.2,138.2,138.1,138.2,140.7,140.7,140.7,140.7,140.5,139.8,139.5
20,142.3,137.8,137.8,137.8,137.8,137.9,138.6,138.6,138.5,138.5,138.4,138.6,140.9,140.9,140.9,140.8,140.7,140.1,139.9
21,142.7,138.3,138.3,138.3,138.3,138.4,138.9,138.9,138.9,138.9,138.8,138.9,141.1,141.1,141,141,140.9,140.3,140.2
22,143.1,138.7,138.7,138.7,138.8,138.8,139.2,139.2,139.2,139.2,139.1,139.3,141.2,141.2,141.2,141.2,141.1,140.6,140.5
23,143.5,139.2,139.2,139.2,139.2,139.2,139.5,139.5,139.5,139.5,139.4,139.6,141.4,141.4,141.4,141.4,141.3,140.8,140.8
24,143.9,139.6,139.6,139.6,139.6,139.7,139.8,139.8,139.8,139.8,139.7,139.9,141.6,141.6,141.6,141.6,141.5,141.1,141.1
25,144.2,140,140,140,140,140.1,140.1,140.1,140.1,140.1,140,140.2,141.8,141.8,141.8,141.8,141.7,141.3,141.4
26,144.6,140.4,140.4,140.4,140.4,140.4,140.4,140.4,140.4,140.4,140.3,140.4,142,142,142,142,141.9,141.5,141.6
27,144.9,140.7,140.7,140.7,140.7,140.8,140.7,140.7,140.7,140.7,140.6,140.7,142.2,142.2,142.2,142.2,142.1,141.8,141.9
28,145.2,141.1,141.1,141.1,141.1,141.2,141,141,141,141,140.8,141,142.4,142.4,142.4,142.4,142.3,142,142.1
29,145.5,141.4,141.4,141.4,141.4,141.5,141.2,141.2,141.2,141.2,141.1,141.2,142.6,142.6,142.6,142.6,142.5,142.2,142.4
30,145.8,141.8,141.8,141.8,141.8,141.8,141.5,141.5,141.5,141.5,141.4,141.5,142.8,142.8,142.8,142.8,142.7,142.4,142.6
31,146.1,142.1,142.1,142.1,142.1,142.2,141.8,141.8,141.8,141.7,141.6,141.7,143,143,143,143,142.9,142.6,142.8
32,146.4,142.4,142.4,142.4,142.4,142.5,142,142,142,142,141.9,142,143.2,143.2,143.2,143.2,143.1,142.8,143
33,146.6,142.7,142.7,142.7,142.7,142.8,142.2,142.2,142.2,142.2,142.1,142.2,143.3,143.3,143.3,143.3,143.2,143,143.3
34,146.9,143,143,143,143,143.1,142.5,142.5,142.5,142.5,142.3,142.4,143.5,143.5,143.5,143.5,143.4,143.2,143.5
35,147.1,143.2,143.3,143.3,143.3,143.4,142.7,142.7,142.7,142.7,142.6,142.6,143.7,143.7,143.7,143.7,143.6,143.4,143.7
36,147.4,143.5,143.5,143.5,143.6,143.6,142.9,142.9,142.9,142.9,142.8,142.8,143.9,143.9,143.9,143.9,143.8,143.6,143.8
37,147.6,143.8,143.8,143.8,143.8,143.9,143.2,143.2,143.2,143.2,143,143.1,144.1,144.1,144.1,144.1,143.9,143.8,144
38,147.9,144,144.1,144.1,144.1,144.2,143.4,143.4,143.4,143.4,143.2,143.3,144.2,144.2,144.2,144.2,144.1,144,144.2
39,148.1,144.3,144.3,144.3,144.3,144.4,143.6,143.6,143.6,143.6,143.4,143.5,144.4,144.4,144.4,144.4,144.3,144.1,144.4
40,148.3,144.5,144.6,144.6,144.6,144.7,143.8,143.8,143.8,143.8,143.6,143.7,144.6,144.6,144.6,144.6,144.5,144.3,144.6
41,148.5,144.8,144.8,144.8,144.8,144.9,144,144,144,144,143.8,143.8,144.7,144.7,144.7,144.7,144.6,144.5,144.7
42,148.7,145,145,145.1,145.1,145.2,144.2,144.2,144.2,144.2,144,144,144.9,144.9,144.9,144.9,144.8,144.7,144.9
43,148.9,145.2,145.3,145.3,145.3,145.4,144.4,144.4,144.4,144.4,144.2,144.2,145.1,145.1,145.1,145.1,144.9,144.8,145.1
44,149.1,145.5,145.5,145.5,145.6,145.7,144.6,144.6,144.6,144.6,144.4,144.4,145.2,145.2,145.2,145.2,145.1,145,145.2
45,149.3,145.7,145.7,145.8,145.8,145.9,144.8,144.8,144.8,144.8,144.6,144.6,145.4,145.4,145.4,145.4,145.3,145.1,145.4
46,149.5,145.9,146,146,146,146.1,145,145,145,145,144.8,144.7,145.5,145.5,145.5,145.5,145.4,145.3,145.6
47,149.7,146.1,146.2,146.2,146.2,146.4,145.2,145.2,145.2,145.2,145,144.9,145.7,145.7,145.7,145.7,145.6,145.5,145.7
48,149.9,146.3,146.4,146.4,146.4,146.6,145.4,145.4,145.3,145.3,145.2,145.1,145.8,145.8,145.8,145.8,145.7,145.6,145.9
49,150.1,146.5,146.6,146.6,146.7,146.8,145.5,145.5,145.5,145.5,145.3,145.2,146,146,146,146,145.9,145.8,146
50,150.2,146.7,146.8,146.8,146.9,147,145.7,145.7,145.7,145.7,145.5,145.4,146.1,146.1,146.1,146.1,146,145.9,146.1
51,150.4,146.9,147,147,147.1,147.2,145.9,145.9,145.9,145.9,145.7,145.6,146.3,146.3,146.3,146.3,146.2,146,146.3
52,150.6,147.1,147.2,147.2,147.3,147.4,146,146,146,146,145.8,145.7,146.4,146.4,146.4,146.4,146.3,146.2,146.4
53,150.7,147.3,147.4,147.4,147.5,147.6,146.2,146.2,146.2,146.2,146,145.9,146.6,146.6,146.6,146.6,146.4,146.3,146.6
54,150.9,147.4,147.5,147.6,147.6,147.8,146.4,146.4,146.4,146.4,146.1,146,146.7,146.7,146.7,146.7,146.6,146.5,146.7
55,151.1,147.6,147.7,147.8,147.8,148,146.5,146.5,146.5,146.5,146.3,146.2,146.9,146.9,146.9,146.8,146.7,146.6,146.8
56,151.2,147.8,147.9,148,148,148.2,146.7,146.7,146.7,146.7,146.5,146.3,147,147,147,147,146.8,146.7,147
57,151.4,148,148.1,148.1,148.2,148.4,146.8,146.8,146.8,146.8,146.6,146.4,147.1,147.1,147.1,147.1,147,146.9,147.1
58,151.5,148.1,148.2,148.3,148.4,148.6,147,147,147,147,146.8,146.6,147.3,147.3,147.3,147.3,147.1,147,147.2
59,151.7,148.3,148.4,148.5,148.5,148.8,147.2,147.2,147.1,147.1,146.9,146.7,147.4,147.4,147.4,147.4,147.2,147.1,147.3
60,151.8,148.4,148.6,148.6,148.7,149,147.3,147.3,147.3,147.3,147.1,146.9,147.5,147.5,147.5,147.5,147.4,147.3,147.5
61,152,148.6,148.7,148.8,148.9,149.2,147.4,147.4,147.4,147.4,147.2,147,147.7,147.7,147.6,147.6,147.5,147.4,147.6
62,152.1,148.7,148.9,149,149,149.4,147.6,147.6,147.6,147.6,147.3,147.1,147.8,147.8,147.8,147.8,147.6,147.5,147.7
63,152.2,148.9,149,149.1,149.2,149.5,147.7,147.7,147.7,147.7,147.5,147.3,147.9,147.9,147.9,147.9,147.7,147.6,147.8
64,152.4,149,149.2,149.3,149.4,149.7,147.9,147.9,147.9,147.9,147.6,147.4,148,148,148,148,147.9,147.7,148
65,152.5,149.1,149.3,149.4,149.5,149.9,148,148,148,148,147.7,147.5,148.2,148.2,148.2,148.1,148,147.9,148.1
66,152.6,149.3,149.5,149.6,149.7,150,148.2,148.2,148.1,148.1,147.9,147.6,148.3,148.3,148.3,148.3,148.1,148,148.2
67,152.8,149.4,149.6,149.7,149.8,150.2,148.3,148.3,148.3,148.3,148,147.8,148.4,148.4,148.4,148.4,148.2,148.1,148.3
68,152.9,149.5,149.7,149.8,150,150.4,148.4,148.4,148.4,148.4,148.1,147.9,148.5,148.5,148.5,148.5,148.3,148.2,148.4
69,153,149.6,149.9,150,150.1,150.5,148.6,148.6,148.5,148.5,148.3,148,148.6,148.6,148.6,148.6,148.5,148.3,148.5
70,153.2,149.8,150,150.1,150.2,150.7,148.7,148.7,148.7,148.7,148.4,148.1,148.8,148.7,148.7,148.7,148.6,148.4,148.6
71,153.3,149.9,150.1,150.2,150.4,150.9,148.8,148.8,148.8,148.8,148.5,148.2,148.9,148.9,148.9,148.9,148.7,148.5,148.7
72,153.4,150,150.2,150.4,150.5,151,148.9,148.9,148.9,148.9,148.6,148.4,149,149,149,149,148.8,148.7,148.8
73,153.5,150.1,150.4,150.5,150.7,151.2,149.1,149.1,149.1,149.1,148.8,148.5,149.1,149.1,149.1,149.1,148.9,148.8,148.9
74,153.6,150.2,150.5,150.6,150.8,151.3,149.2,149.2,149.2,149.2,148.9,148.6,149.2,149.2,149.2,149.2,149,148.9,149.1
75,153.8,150.3,150.6,150.7,150.9,151.5,149.3,149.3,149.3,149.3,149,148.7,149.3,149.3,149.3,149.3,149.1,149,149.2
76,153.9,150.4,150.7,150.8,151,151.6,149.4,149.4,149.4,149.4,149.1,148.8,149.4,149.4,149.4,149.4,149.2,149.1,149.3
77,154,150.6,150.8,151,151.2,151.8,149.6,149.6,149.6,149.5,149.2,148.9,149.5,149.5,149.5,149.5,149.3,149.2,149.4
78,154.1,150.8,150.9,151.1,151.3,151.9,149.7,149.7,149.7,149.7,149.3,149,149.6,149.6,149.6,149.6,149.4,149.3,149.5
79,154.2,151,151,151.2,151.4,152.1,149.8,149.8,149.8,149.8,149.5,149.1,149.7,149.7,149.7,149.7,149.6,149.4,149.6
80,154.3,151.2,151.1,151.3,151.5,152.2,149.9,149.9,149.9,149.9,149.6,149.2,149.8,149.8,149.8,149.8,149.7,149.5,149.7
81,154.4,151.3,151.2,151.4,151.6,152.3,150,150,150,150,149.7,149.3,150,149.9,149.9,149.9,149.8,149.6,149.7
82,154.5,151.5,151.4,151.5,151.7,152.5,150.1,150.1,150.1,150.1,149.8,149.4,150.1,150.1,150,150,149.9,149.7,149.8
83,154.6,151.7,151.5,151.6,151.8,152.6,150.3,150.2,150.2,150.2,149.9,149.5,150.2,150.2,150.2,150.1,150,149.8,149.9
84,154.7,151.9,151.7,151.7,151.9,152.8,150.4,150.4,150.4,150.3,150,149.6,150.3,150.3,150.3,150.2,150.1,149.9,150
85,154.8,152.1,151.9,151.8,152,152.9,150.5,150.5,150.5,150.5,150.1,149.7,150.4,150.4,150.4,150.3,150.2,150,150.1
86,154.9,152.2,152.1,152,152.1,153,150.6,150.6,150.6,150.6,150.2,149.8,150.5,150.5,150.5,150.4,150.2,150.1,150.2
87,155,152.4,152.2,152.1,152.2,153.1,150.7,150.7,150.7,150.7,150.3,149.9,150.6,150.6,150.5,150.5,150.3,150.1,150.3
88,155.1,152.6,152.4,152.3,152.3,153.3,150.8,150.8,150.8,150.8,150.4,150,150.7,150.6,150.6,150.6,150.4,150.2,150.4
89,155.2,152.8,152.6,152.5,152.4,153.4,150.9,150.9,150.9,150.9,150.5,150.1,150.7,150.7,150.7,150.7,150.5,150.3,150.5
90,155.3,152.9,152.7,152.6,152.5,153.5,151,151,151,151,150.6,150.2,150.8,150.8,150.8,150.8,150.6,150.4,150.6
91,155.4,153.1,152.9,152.8,152.7,153.6,151.1,151.1,151.1,151.1,150.7,150.3,150.9,150.9,150.9,150.9,150.7,150.5,150.7
92,155.5,153.3,153.1,153,152.8,153.8,151.2,151.2,151.2,151.2,150.8,150.4,151,151,151,151,150.8,150.6,150.7
93,155.6,153.4,153.2,153.1,153,153.9,151.3,151.3,151.3,151.3,150.9,150.5,151.1,151.1,151.1,151.1,150.9,150.7,150.8
94,155.7,153.6,153.4,153.3,153.1,154,151.4,151.4,151.4,151.4,151,150.6,151.2,151.2,151.2,151.2,151,150.8,150.9
95,155.8,153.8,153.6,153.4,153.3,154.1,151.5,151.5,151.5,151.5,151.1,150.6,151.3,151.3,151.3,151.3,151.1,150.9,151
96,155.9,153.9,153.7,153.6,153.5,154.2,151.6,151.6,151.6,151.6,151.2,150.7,151.4,151.4,151.4,151.4,151.2,150.9,151.1
97,156,154.1,153.9,153.8,153.6,154.3,151.7,151.7,151.7,151.7,151.3,150.8,151.5,151.5,151.5,151.5,151.3,151,151.2
98,156.1,154.3,154.1,153.9,153.8,154.4,151.8,151.8,151.8,151.8,151.4,150.9,151.6,151.6,151.6,151.6,151.3,151.1,151.2
99,156.2,154.4,154.2,154.1,154,154.5,151.9,151.9,151.9,151.9,151.5,151,151.7,151.7,151.7,151.6,151.4,151.2,151.3
100,156.3,154.6,154.4,154.3,154.1,154.7,152,152,152,152,151.6,151.1,151.7,151.7,151.7,151.7,151.5,151.3,151.4
101,156.3,154.8,154.6,154.4,154.3,154.8,152.1,152.1,152.1,152.1,151.7,151.2,151.8,151.8,151.8,151.8,151.6,151.4,151.5
102,156.4,154.9,154.7,154.6,154.4,154.9,152.2,152.2,152.2,152.2,151.8,151.2,151.9,151.9,151.9,151.9,151.7,151.4,151.6
103,156.5,155.1,154.9,154.8,154.6,155,152.3,152.3,152.3,152.3,151.9,151.3,152,152,152,152,151.8,151.5,151.6
104,156.6,155.2,155,154.9,154.8,155.1,152.4,152.4,152.4,152.4,152,151.4,152.1,152.1,152.1,152.1,151.8,151.6,151.7
105,156.7,155.4,155.2,155.1,154.9,155.2,152.5,152.5,152.5,152.5,152.1,151.5,152.2,152.2,152.2,152.2,151.9,151.7,151.8
106,156.8,155.5,155.3,155.2,155.1,155.4,152.6,152.6,152.6,152.6,152.1,151.6,152.3,152.3,152.3,152.2,152,151.8,151.9
107,156.8,155.7,155.5,155.4,155.2,155.5,152.7,152.7,152.7,152.6,152.2,151.6,152.3,152.3,152.3,152.3,152.1,151.8,151.9
108,156.9,155.9,155.7,155.5,155.4,155.6,152.8,152.8,152.8,152.7,152.3,151.7,152.4,152.4,152.4,152.4,152.2,151.9,152
109,157,156,155.8,155.7,155.5,155.7,152.9,152.8,152.8,152.8,152.4,151.8,152.5,152.5,152.5,152.5,152.2,152,152.1
110,157.1,156.2,156,155.8,155.7,155.8,152.9,152.9,152.9,152.9,152.5,151.9,152.6,152.6,152.6,152.6,152.3,152.1,152.2
111,157.2,156.3,156.1,156,155.8,155.9,153,153,153,153,152.6,151.9,152.7,152.7,152.7,152.6,152.4,152.1,152.2
112,157.2,156.5,156.3,156.1,156,156,153.1,153.1,153.1,153.1,152.7,152,152.7,152.7,152.7,152.7,152.5,152.2,152.3
113,157.3,156.6,156.4,156.3,156.1,156.1,153.2,153.2,153.2,153.2,152.7,152.1,152.8,152.8,152.8,152.8,152.5,152.3,152.4
114,157.4,156.7,156.6,156.4,156.3,156.2,153.3,153.3,153.3,153.3,152.8,152.2,152.9,152.9,152.9,152.9,152.6,152.3,152.5
115,157.5,156.9,156.7,156.6,156.4,156.3,153.4,153.4,153.4,153.4,152.9,152.2,153,153,153,153,152.7,152.4,152.5
116,157.5,157,156.8,156.7,156.6,156.4,153.5,153.5,153.5,153.4,153,152.3,153.1,153.1,153,153,152.8,152.5,152.6
117,157.6,157.2,157,156.9,156.7,156.5,153.5,153.5,153.5,153.5,153.1,152.4,153.1,153.1,153.1,153.1,152.8,152.6,152.7
118,157.7,157.3,157.1,157,156.9,156.6,153.6,153.6,153.6,153.6,153.2,152.5,153.2,153.2,153.2,153.2,152.9,152.6,152.7
119,157.8,157.5,157.3,157.2,157,156.7,153.7,153.7,153.7,153.7,153.2,152.5,153.3,153.3,153.3,153.3,153,152.7,152.8
120,157.8,157.6,157.4,157.3,157.2,156.8,153.8,153.8,153.8,153.8,153.3,152.6,153.4,153.4,153.3,153.3,153.1,152.8,152.9
121,157.9,157.7,157.6,157.5,157.3,156.9,153.9,153.9,153.9,153.9,153.4,152.7,153.4,153.4,153.4,153.4,153.1,152.8,152.9
122,158,157.9,157.7,157.6,157.4,157,154,154,154,153.9,153.5,152.7,153.5,153.5,153.5,153.5,153.2,152.9,153
123,158.1,158,157.8,157.7,157.6,157.1,154,154,154,154,153.5,152.8,153.6,153.6,153.6,153.6,153.3,153,153.1
124,158.1,158.1,158,157.9,157.7,157.2,154.1,154.1,154.1,154.1,153.6,152.9,153.7,153.6,153.6,153.6,153.3,153,153.1
125,158.2,158.3,158.1,158,157.9,157.3,154.2,154.2,154.2,154.2,153.7,152.9,153.7,153.7,153.7,153.7,153.4,153.1,153.2
126,158.3,158.4,158.2,158.1,158,157.4,154.3,154.3,154.3,154.3,153.8,153,153.8,153.8,153.8,153.8,153.5,153.2,153.3
127,158.3,158.7,158.4,158.3,158.1,157.5,154.4,154.4,154.4,154.3,153.8,153.1,153.9,153.9,153.9,153.8,153.6,153.2,153.3
128,158.4,159.1,158.5,158.4,158.3,157.5,154.4,154.4,154.4,154.4,153.9,153.1,153.9,153.9,153.9,153.9,153.6,153.3,153.4
129,158.5,160.1,158.7,158.6,158.4,157.6,154.5,154.5,154.5,154.5,154,153.2,154,154,154,154,153.7,153.4,153.5
130,158.5,161.4,158.8,158.7,158.6,157.7,154.6,154.6,154.6,154.6,154.1,153.3,154.1,154.1,154.1,154.1,153.8,153.4,153.5
131,158.6,162.6,158.9,158.8,158.7,157.8,154.7,154.7,154.7,154.7,154.1,153.3,154.1,154.1,154.1,154.1,153.8,153.5,153.6
132,158.7,163.8,159.1,159,158.8,157.9,154.8,154.8,154.7,154.7,154.2,153.4,154.2,154.2,154.2,154.2,153.9,153.6,153.6
133,158.7,165.1,159.2,159.1,158.9,158,154.8,154.8,154.8,154.8,154.3,153.5,154.3,154.3,154.3,154.3,154,153.6,153.7
134,158.8,166.4,159.3,159.2,159.1,158,154.9,154.9,154.9,154.9,154.4,153.5,154.4,154.3,154.3,154.3,154,153.7,153.8
135,158.9,167.6,159.4,159.3,159.2,158.1,155,155,155,155,154.4,153.6,154.4,154.4,154.4,154.4,154.1,153.7,153.8
136,158.9,169.5,159.6,159.5,159.3,158.2,155.1,155.1,155,155,154.5,153.6,154.5,154.5,154.5,154.5,154.2,153.8,153.9
137,159,171.8,159.7,159.6,159.5,158.3,155.1,155.1,155.1,155.1,154.6,153.7,154.6,154.6,154.5,154.5,154.2,153.9,153.9
138,159.1,174.1,159.8,159.7,159.6,158.4,155.2,155.2,155.2,155.2,154.6,153.8,154.6,154.6,154.6,154.6,154.3,153.9,154
139,159.1,176.3,159.9,159.9,159.7,158.5,155.3,155.3,155.3,155.3,154.7,153.8,154.7,154.7,154.7,154.7,154.3,154,154.1
140,159.2,178.6,160.1,160,159.8,158.6,155.4,155.4,155.3,155.3,154.8,153.9,154.8,154.8,154.7,154.7,154.4,154,154.1
141,159.2,180.9,160.2,160.1,160,158.7,155.4,155.4,155.4,155.4,154.9,154,154.8,154.8,154.8,154.8,154.5,154.1,154.2
142,159.3,183.2,160.3,160.2,160.1,158.9,155.5,155.5,155.5,155.5,154.9,154,154.9,154.9,154.9,154.9,154.5,154.2,154.2
143,159.4,185.4,160.4,160.3,160.2,159,155.6,155.6,155.6,155.6,155,154.1,154.9,154.9,154.9,154.9,154.6,154.2,154.3
144,159.4,187.7,160.9,160.5,160.3,159.1,155.7,155.6,155.6,155.6,155.1,154.1,155,155,155,155,154.7,154.3,154.4
145,159.5,190,162.9,160.6,160.5,159.2,155.7,155.7,155.7,155.7,155.1,154.2,155.1,155.1,155.1,155.1,154.7,154.3,154.4
146,159.5,192.3,164.9,160.7,160.6,159.4,155.8,155.8,155.8,155.8,155.2,154.2,155.1,155.1,155.1,155.1,154.8,154.4,154.5
147,159.6,194.5,167.1,160.8,160.7,159.5,155.9,155.9,155.9,155.8,155.3,154.3,155.2,155.2,155.2,155.2,154.8,154.5,154.5
148,159.7,196.7,169.3,160.9,160.8,159.6,155.9,155.9,155.9,155.9,155.3,154.4,155.3,155.3,155.3,155.2,154.9,154.5,154.6
149,159.7,197.3,171.6,161.1,161,159.7,156,156,156,156,155.4,154.4,155.3,155.3,155.3,155.3,155,154.6,154.6
150,159.8,198,173.9,161.2,161.1,159.9,156.1,156.1,156.1,156.1,155.5,154.5,155.4,155.4,155.4,155.4,155,154.6,154.7
151,159.8,198.5,176.2,161.6,161.2,160,156.1,156.1,156.1,156.1,155.5,154.5,155.5,155.4,155.4,155.4,155.1,154.7,154.7
152,159.9,199.1,178.4,163.5,161.3,160.1,156.2,156.2,156.2,156.2,155.6,154.6,155.5,155.5,155.5,155.5,155.1,154.7,154.8
153,160,199.6,180.7,165.7,161.4,160.2,156.3,156.3,156.3,156.3,155.7,154.6,155.6,155.6,155.6,155.6,155.2,154.8,154.9
154,160,200.1,183,168,161.5,160.4,156.4,156.4,156.3,156.3,155.7,154.7,155.6,155.6,155.6,155.6,155.3,154.8,154.9
155,160.1,200.6,185.3,170.2,161.7,160.5,156.4,156.4,156.4,156.4,155.8,154.7,155.7,155.7,155.7,155.7,155.3,154.9,155
156,160.1,201,187.6,172.5,161.8,160.6,156.5,156.5,156.5,156.5,155.9,154.8,155.8,155.8,155.7,155.7,155.4,154.9,155
157,160.2,201.4,189.8,174.8,161.9,160.7,156.6,156.6,156.5,156.5,155.9,154.9,155.8,155.8,155.8,155.8,155.4,155,155.1
158,160.2,201.9,191.5,177.1,162,160.8,156.6,156.6,156.6,156.6,156,154.9,155.9,155.9,155.9,155.9,155.5,155.1,155.1
159,160.3,202.3,192.5,179.4,162.1,161,156.7,156.7,156.7,156.7,156,155,155.9,155.9,155.9,155.9,155.5,155.1,155.2
160,160.3,202.6,193.4,181.7,162.2,161.1,156.8,156.8,156.8,156.7,156.1,155,156,156,156,156,155.6,155.2,155.2
161,160.4,203,194.3,183.9,162.8,161.2,156.8,156.8,156.8,156.8,156.2,155.1,156.1,156,156,156,155.7,155.2,155.3
162,160.4,203.4,195.1,186.2,165.2,161.3,156.9,156.9,156.9,156.9,156.2,155.1,156.1,156.1,156.1,156.1,155.7,155.3,155.3
163,160.5,203.8,195.8,188.5,167.5,161.4,157,157,157,156.9,156.3,155.2,156.2,156.2,156.2,156.1,155.8,155.3,155.4
164,160.6,204.1,196.5,190.8,169.8,161.5,157,157,157,157,156.4,155.2,156.2,156.2,156.2,156.2,155.8,155.4,155.4
165,160.6,204.4,197.2,192,172.1,161.7,157.1,157.1,157.1,157.1,156.4,155.3,156.3,156.3,156.3,156.3,155.9,155.4,155.5
166,160.7,204.8,197.8,193,174.4,161.8,157.2,157.2,157.1,157.1,156.5,155.3,156.3,156.3,156.3,156.3,155.9,155.5,155.5
167,160.7,205.1,198.4,193.9,176.7,161.9,157.2,157.2,157.2,157.2,156.5,155.4,156.4,156.4,156.4,156.4,156,155.5,155.6
168,160.8,205.4,199,194.8,179,162,157.3,157.3,157.3,157.3,156.6,155.4,156.5,156.5,156.4,156.4,156,155.6,155.6
169,160.8,205.7,199.5,195.6,181.2,162.1,157.4,157.3,157.3,157.3,156.7,155.5,156.5,156.5,156.5,156.5,156.1,155.6,155.7
170,160.9,206,200,196.3,183.5,162.2,157.4,157.4,157.4,157.4,156.7,155.5,156.6,156.6,156.6,156.5,156.1,155.7,155.7
171,160.9,206.3,200.5,197,185.8,162.4,157.5,157.5,157.5,157.5,156.8,155.6,156.6,156.6,156.6,156.6,156.2,155.7,155.8
172,161,206.6,201,197.7,188.1,162.5,157.5,157.5,157.5,157.5,156.8,155.6,156.7,156.7,156.7,156.7,156.2,155.8,155.8
173,161,206.9,201.4,198.3,190.4,162.6,157.6,157.6,157.6,157.6,156.9,155.7,156.7,156.7,156.7,156.7,156.3,155.8,155.9
