2400MHz / Lb(0.01) dB
,h2(m),1000,1000,1000,1000,1000,10000,10000,10000,10000,10000,10000,20000,20000,20000,20000,20000,20000,20000
,h1(m),1.5,15,30,60,1000,1.5,15,30,60,1000,10000,1.5,15,30,60,1000,10000,20000
D (km),FSL
0,100,94.6,94.5,94.4,94.1,0,114.6,114.6,114.6,114.6,113.7,0,120.7,120.7,120.6,120.6,120.2,114.6,0
1,103.1,97.2,97.1,97.1,97.1,96.8,114.7,114.7,114.7,114.7,114.4,99.5,120.7,120.7,120.7,120.7,120.5,117.7,99.7
2,107,100.7,100.7,100.7,100.7,101.3,114.8,114.8,114.8,114.8,114.5,105.2,120.7,120.7,120.7,120.7,120.6,117.8,105.5
3,110.1,103.5,103.5,103.5,103.5,104,114.9,114.9,114.9,114.9,114.7,108.4,120.7,120.7,120.7,120.7,120.6,117.9,108.9
4,112.4,105.7,105.7,105.7,105.7,106.1,115.2,115.2,115.2,115.2,115,110.6,120.8,120.8,120.8,120.8,120.7,118.1,111.3
5,114.2,107.5,107.5,107.5,107.5,107.8,115.4,115.4,115.4,115.4,115.3,112.2,120.9,120.9,120.9,120.9,120.8,118.4,113
6,115.7,109,109,109,109,109.3,115.7,115.7,115.7,115.7,115.6,113.4,121,121,121,121,120.9,118.7,114.4
7,117,110.3,110.3,110.3,110.3,110.5,116.1,116.1,116.1,116.1,115.9,114.5,121.1,121.1,121.1,121.1,121,119,115.6
8,118.2,111.4,111.4,111.4,111.4,111.6,116.4,116.4,116.4,116.4,116.3,115.4,121.2,121.2,121.2,121.2,121.1,119.3,116.6
9,119.2,112.4,112.4,112.4,112.4,112.6,116.8,116.8,116.8,116.8,116.7,116.1,121.3,121.3,121.3,121.3,121.2,119.6,117.4
10,120.1,113.3,113.3,113.3,113.3,113.5,117.2,117.2,117.2,117.2,117.1,116.8,121.5,121.4,121.4,121.4,121.4,119.9,118.2
11,120.9,114.1,114.1,114.1,114.1,114.3,117.5,117.5,117.5,117.5,117.5,117.4,121.6,121.6,121.6,121.6,121.5,120.2,118.9
12,121.7,114.9,114.9,114.9,114.9,115,117.9,117.9,117.9,117.9,117.9,118,121.8,121.8,121.8,121.7,121.7,120.6,119.5
13,122.4,115.5,115.6,115.6,115.6,115.7,118.3,118.3,118.3,118.3,118.3,118.5,121.9,121.9,121.9,121.9,121.8,120.9,120
14,123,116.2,116.2,116.2,116.2,116.3,118.7,118.7,118.7,118.7,118.6,118.9,122.1,122.1,122.1,122.1,122,121.2,120.5
15,123.6,116.8,116.8,116.8,116.8,116.9,119,119,119,119,119,119.4,122.3,122.3,122.3,122.3,122.2,121.5,121
16,124.2,117.3,117.3,117.3,117.4,117.4,119.4,119.4,119.4,119.4,119.4,119.8,122.4,122.4,122.4,122.4,122.4,121.7,121.4
17,124.7,117.9,117.9,117.9,117.9,118,119.7,119.7,119.7,119.7,119.7,120.2,122.6,122.6,122.6,122.6,122.6,122,121.8
18,125.2,118.4,118.4,118.4,118.4,118.5,120.1,120.1,120.1,120.1,120.1,120.5,122.8,122.8,122.8,122.8,122.8,122.3,122.1
19,125.6,118.8,118.8,118.8,118.9,118.9,120.4,120.4,120.4,120.4,120.4,120.9,123,123,123,123,122.9,122.5,122.5
20,126.1,119.3,119.3,119.3,119.3,119.4,120.7,120.7,120.7,120.7,120.7,121.2,123.2,123.2,123.2,123.2,123.1,122.8,122.8
21,126.5,119.7,119.7,119.7,119.7,119.8,121,121,121,121,121,121.5,123.4,123.4,123.4,123.4,123.3,123,123.1
22,126.9,120.1,120.1,120.1,120.1,120.2,121.4,121.4,121.4,121.4,121.4,121.8,123.5,123.5,123.5,123.5,123.5,123.3,123.4
23,127.3,120.5,120.5,120.5,120.5,120.6,121.7,121.7,121.7,121.7,121.7,122.1,123.7,123.7,123.7,123.7,123.7,123.5,123.7
24,127.7,120.9,120.9,120.9,120.9,121,122,122,122,122,122,122.4,123.9,123.9,123.9,123.9,123.9,123.7,124
25,128,121.2,121.2,121.3,121.3,121.3,122.2,122.2,122.2,122.2,122.2,122.7,124.1,124.1,124.1,124.1,124.1,124,124.2
26,128.4,121.6,121.6,121.6,121.6,121.7,122.5,122.5,122.5,122.5,122.5,123,124.3,124.3,124.3,124.3,124.3,124.2,124.5
27,128.7,121.9,121.9,121.9,121.9,122,122.8,122.8,122.8,122.8,122.8,123.2,124.5,124.5,124.5,124.5,124.5,124.4,124.7
28,129,122.2,122.2,122.2,122.3,122.3,123.1,123.1,123.1,123.1,123.1,123.5,124.7,124.7,124.7,124.7,124.6,124.6,124.9
29,129.3,122.5,122.5,122.6,122.6,122.6,123.3,123.3,123.3,123.3,123.3,123.7,124.8,124.8,124.8,124.8,124.8,124.8,125.1
30,129.6,122.8,122.8,122.8,122.9,122.9,123.6,123.6,123.6,123.6,123.6,124,125,125,125,125,125,125,125.4
31,129.9,123.1,123.1,123.1,123.1,123.2,123.8,123.8,123.8,123.8,123.8,124.2,125.2,125.2,125.2,125.2,125.2,125.2,125.6
32,130.2,123.4,123.4,123.4,123.4,123.5,124.1,124.1,124.1,124.1,124.1,124.4,125.4,125.4,125.4,125.4,125.4,125.4,125.8
33,130.4,123.7,123.7,123.7,123.7,123.8,124.3,124.3,124.3,124.3,124.3,124.6,125.6,125.6,125.6,125.6,125.5,125.6,126
34,130.7,123.9,123.9,123.9,124,124,124.5,124.5,124.5,124.5,124.5,124.9,125.7,125.7,125.7,125.7,125.7,125.8,126.1
35,130.9,124.2,124.2,124.2,124.2,124.3,124.7,124.7,124.7,124.7,124.7,125.1,125.9,125.9,125.9,125.9,125.9,126,126.3
36,131.2,124.4,124.4,124.4,124.5,124.6,125,125,125,125,125,125.3,126.1,126.1,126.1,126.1,126.1,126.1,126.5
37,131.4,124.6,124.7,124.7,124.7,124.8,125.2,125.2,125.2,125.2,125.2,125.5,126.2,126.2,126.2,126.2,126.2,126.3,126.7
38,131.7,124.9,124.9,124.9,124.9,125,125.4,125.4,125.4,125.4,125.4,125.7,126.4,126.4,126.4,126.4,126.4,126.5,126.9
39,131.9,125.1,125.1,125.1,125.2,125.3,125.6,125.6,125.6,125.6,125.6,125.9,126.6,126.6,126.6,126.6,126.6,126.6,127
40,132.1,125.3,125.3,125.3,125.4,125.5,125.8,125.8,125.8,125.8,125.8,126.1,126.7,126.7,126.7,126.7,126.7,126.8,127.2
41,132.3,125.5,125.5,125.6,125.6,125.7,126,126,126,126,126,126.2,126.9,126.9,126.9,126.9,126.9,127,127.3
42,132.5,125.7,125.7,125.8,125.8,125.9,126.2,126.2,126.2,126.2,126.2,126.4,127.1,127.1,127.1,127.1,127,127.1,127.5
43,132.7,125.9,125.9,126,126,126.2,126.4,126.4,126.4,126.4,126.4,126.6,127.2,127.2,127.2,127.2,127.2,127.3,127.7
44,132.9,126.1,126.1,126.2,126.2,126.4,126.6,126.6,126.6,126.6,126.5,126.8,127.4,127.4,127.4,127.4,127.3,127.4,127.8
45,133.1,126.3,126.3,126.4,126.4,126.6,126.7,126.7,126.7,126.7,126.7,126.9,127.5,127.5,127.5,127.5,127.5,127.6,128
46,133.3,126.5,126.5,126.5,126.6,126.8,126.9,126.9,126.9,126.9,126.9,127.1,127.7,127.7,127.7,127.7,127.7,127.7,128.1
47,133.5,126.8,126.7,126.7,126.8,127,127.1,127.1,127.1,127.1,127.1,127.3,127.8,127.8,127.8,127.8,127.8,127.9,128.3
48,133.7,127,126.9,126.9,126.9,127.1,127.3,127.3,127.3,127.3,127.3,127.4,128,128,128,128,127.9,128,128.4
49,133.9,127.3,127,127.1,127.1,127.3,127.4,127.4,127.4,127.4,127.4,127.6,128.1,128.1,128.1,128.1,128.1,128.2,128.5
50,134,127.6,127.2,127.2,127.3,127.5,127.6,127.6,127.6,127.6,127.6,127.8,128.3,128.3,128.3,128.3,128.2,128.3,128.7
51,134.2,127.8,127.3,127.4,127.5,127.7,127.8,127.8,127.8,127.8,127.7,127.9,128.4,128.4,128.4,128.4,128.4,128.5,128.8
52,134.4,128.1,127.5,127.6,127.6,127.9,127.9,127.9,127.9,127.9,127.9,128.1,128.5,128.5,128.5,128.5,128.5,128.6,128.9
53,134.5,128.4,127.6,127.7,127.8,128,128.1,128.1,128.1,128.1,128.1,128.2,128.7,128.7,128.7,128.7,128.7,128.7,129.1
54,134.7,128.7,127.8,127.9,127.9,128.2,128.2,128.2,128.2,128.2,128.2,128.4,128.8,128.8,128.8,128.8,128.8,128.9,129.2
55,134.9,129,127.9,128,128.1,128.4,128.4,128.4,128.4,128.4,128.4,128.5,128.9,128.9,128.9,128.9,128.9,129,129.3
56,135,129.2,128.1,128.1,128.2,128.5,128.5,128.5,128.5,128.5,128.5,128.6,129.1,129.1,129.1,129.1,129.1,129.1,129.5
57,135.2,129.5,128.2,128.3,128.4,128.7,128.7,128.7,128.7,128.7,128.7,128.8,129.2,129.2,129.2,129.2,129.2,129.3,129.6
58,135.3,129.8,128.3,128.4,128.5,128.8,128.8,128.8,128.8,128.8,128.8,128.9,129.3,129.3,129.3,129.3,129.3,129.4,129.7
59,135.5,130.1,128.4,128.5,128.6,129,129,129,129,129,129,129.1,129.5,129.5,129.5,129.5,129.4,129.5,129.8
60,135.6,130.3,128.6,128.6,128.8,129.1,129.1,129.1,129.1,129.1,129.1,129.2,129.6,129.6,129.6,129.6,129.6,129.6,129.9
61,135.8,130.6,128.7,128.8,128.9,129.3,129.2,129.2,129.2,129.2,129.2,129.3,129.7,129.7,129.7,129.7,129.7,129.8,130.1
62,135.9,130.8,128.8,128.9,129,129.4,129.4,129.4,129.4,129.4,129.4,129.5,129.8,129.8,129.8,129.8,129.8,129.9,130.2
63,136,131,128.9,129,129.1,129.5,129.5,129.5,129.5,129.5,129.5,129.6,130,130,130,130,129.9,130,130.3
64,136.2,131.2,129,129.1,129.2,129.7,129.7,129.7,129.7,129.7,129.6,129.7,130.1,130.1,130.1,130.1,130.1,130.1,130.4
65,136.3,131.4,129.1,129.2,129.4,129.8,129.8,129.8,129.8,129.8,129.8,129.8,130.2,130.2,130.2,130.2,130.2,130.2,130.5
66,136.4,131.5,129.2,129.3,129.5,130,129.9,129.9,129.9,129.9,129.9,130,130.3,130.3,130.3,130.3,130.3,130.3,130.6
67,136.6,131.7,129.3,129.4,129.6,130.1,130,130,130,130,130,130.1,130.4,130.4,130.4,130.4,130.4,130.5,130.7
68,136.7,131.8,129.4,129.5,129.7,130.2,130.2,130.2,130.2,130.2,130.1,130.2,130.5,130.5,130.5,130.5,130.5,130.6,130.8
69,136.8,131.9,129.5,129.6,129.8,130.3,130.3,130.3,130.3,130.3,130.3,130.3,130.6,130.6,130.6,130.6,130.6,130.7,130.9
70,137,132,129.5,129.7,129.9,130.5,130.4,130.4,130.4,130.4,130.4,130.4,130.8,130.8,130.8,130.8,130.7,130.8,131.1
71,137.1,132,129.6,129.8,130,130.6,130.5,130.5,130.5,130.5,130.5,130.5,130.9,130.9,130.9,130.9,130.9,130.9,131.2
72,137.2,132.1,129.7,129.9,130,130.7,130.7,130.7,130.6,130.6,130.6,130.7,131,131,131,131,131,131,131.3
73,137.3,132.1,129.8,129.9,130.1,130.8,130.8,130.8,130.8,130.8,130.7,130.8,131.1,131.1,131.1,131.1,131.1,131.1,131.4
74,137.4,132.1,129.8,130,130.2,130.9,130.9,130.9,130.9,130.9,130.9,130.9,131.2,131.2,131.2,131.2,131.2,131.2,131.5
75,137.6,132.1,129.9,130.1,130.3,131,131,131,131,131,131,131,131.3,131.3,131.3,131.3,131.3,131.3,131.6
76,137.7,132.1,130,130.1,130.4,131.2,131.1,131.1,131.1,131.1,131.1,131.1,131.4,131.4,131.4,131.4,131.4,131.4,131.7
77,137.8,132.1,130,130.2,130.5,131.3,131.2,131.2,131.2,131.2,131.2,131.2,131.5,131.5,131.5,131.5,131.5,131.5,131.8
78,137.9,132.2,130.1,130.3,130.5,131.4,131.3,131.3,131.3,131.3,131.3,131.3,131.6,131.6,131.6,131.6,131.6,131.6,131.9
79,138,132.2,130.1,130.3,130.6,131.5,131.4,131.4,131.4,131.4,131.4,131.4,131.7,131.7,131.7,131.7,131.7,131.7,132
80,138.1,132.3,130.2,130.4,130.7,131.6,131.6,131.6,131.6,131.6,131.5,131.5,131.8,131.8,131.8,131.8,131.8,131.8,132
81,138.2,132.4,130.2,130.5,130.7,131.7,131.7,131.7,131.7,131.7,131.6,131.6,131.9,131.9,131.9,131.9,131.9,131.9,132.1
82,138.3,132.5,130.3,130.5,130.8,131.8,131.8,131.8,131.8,131.8,131.7,131.7,132,132,132,132,132,132,132.2
83,138.4,132.6,130.3,130.5,130.9,131.9,131.9,131.9,131.9,131.9,131.8,131.8,132.1,132.1,132.1,132.1,132.1,132.1,132.3
84,138.5,132.7,130.4,130.6,130.9,132,132,132,132,132,131.9,131.9,132.2,132.2,132.2,132.2,132.2,132.2,132.4
85,138.6,132.8,130.5,130.6,131,132.1,132.1,132.1,132.1,132.1,132,132,132.3,132.3,132.3,132.3,132.3,132.3,132.5
86,138.7,133,130.6,130.7,131,132.2,132.2,132.2,132.2,132.2,132.1,132.1,132.4,132.4,132.4,132.4,132.4,132.4,132.6
87,138.8,133.1,130.7,130.7,131.1,132.3,132.3,132.3,132.3,132.3,132.2,132.2,132.5,132.5,132.5,132.5,132.5,132.5,132.7
88,138.9,133.2,130.8,130.9,131.1,132.4,132.4,132.4,132.4,132.4,132.3,132.3,132.6,132.6,132.6,132.6,132.6,132.6,132.8
89,139,133.3,131,131,131.2,132.5,132.5,132.5,132.5,132.5,132.4,132.4,132.7,132.7,132.7,132.7,132.6,132.7,132.9
90,139.1,133.5,131.1,131.1,131.2,132.6,132.6,132.6,132.6,132.6,132.5,132.5,132.8,132.8,132.8,132.8,132.7,132.7,132.9
91,139.2,133.6,131.2,131.2,131.2,132.6,132.7,132.7,132.7,132.7,132.6,132.6,132.8,132.8,132.8,132.8,132.8,132.8,133
92,139.3,133.7,131.4,131.3,131.3,132.7,132.8,132.8,132.8,132.8,132.7,132.7,132.9,132.9,132.9,132.9,132.9,132.9,133.1
93,139.4,133.8,131.5,131.4,131.4,132.8,132.9,132.9,132.9,132.9,132.8,132.8,133,133,133,133,133,133,133.2
94,139.5,134.1,131.6,131.6,131.5,132.9,132.9,132.9,132.9,132.9,132.9,132.8,133.1,133.1,133.1,133.1,133.1,133.1,133.3
95,139.6,134.3,131.8,131.7,131.6,133,133,133,133,133,133,132.9,133.2,133.2,133.2,133.2,133.2,133.2,133.4
96,139.7,134.5,131.9,131.8,131.8,133.1,133.1,133.1,133.1,133.1,133.1,133,133.3,133.3,133.3,133.3,133.3,133.3,133.4
97,139.8,134.7,132,132,131.9,133.2,133.2,133.2,133.2,133.2,133.2,133.1,133.4,133.4,133.4,133.4,133.3,133.3,133.5
98,139.9,135,132.1,132.1,132,133.2,133.3,133.3,133.3,133.3,133.3,133.2,133.5,133.5,133.5,133.4,133.4,133.4,133.6
99,140,135.2,132.3,132.2,132.1,133.3,133.4,133.4,133.4,133.4,133.4,133.3,133.5,133.5,133.5,133.5,133.5,133.5,133.7
100,140.1,135.5,132.4,132.3,132.3,133.4,133.5,133.5,133.5,133.5,133.4,133.4,133.6,133.6,133.6,133.6,133.6,133.6,133.7
101,140.1,135.8,132.5,132.5,132.4,133.5,133.6,133.6,133.6,133.6,133.5,133.4,133.7,133.7,133.7,133.7,133.7,133.7,133.8
102,140.2,136,132.7,132.6,132.5,133.5,133.7,133.7,133.7,133.7,133.6,133.5,133.8,133.8,133.8,133.8,133.8,133.7,133.9
103,140.3,136.3,132.8,132.7,132.7,133.6,133.7,133.7,133.7,133.7,133.7,133.6,133.9,133.9,133.9,133.9,133.8,133.8,134
104,140.4,136.6,132.9,132.9,132.8,133.7,133.8,133.8,133.8,133.8,133.8,133.7,133.9,133.9,133.9,133.9,133.9,133.9,134.1
105,140.5,136.9,133.1,133,132.9,133.7,133.9,133.9,133.9,133.9,133.9,133.8,134,134,134,134,134,134,134.1
106,140.6,137.2,133.2,133.1,133,133.8,134,134,134,134,134,133.8,134.1,134.1,134.1,134.1,134.1,134.1,134.2
107,140.6,137.5,133.3,133.3,133.2,133.9,134.1,134.1,134.1,134.1,134.1,133.9,134.2,134.2,134.2,134.2,134.1,134.1,134.3
108,140.7,137.8,133.5,133.4,133.3,133.9,134.2,134.2,134.2,134.2,134.1,134,134.3,134.3,134.3,134.3,134.2,134.2,134.4
109,140.8,138.2,133.6,133.5,133.4,134,134.2,134.2,134.2,134.2,134.2,134.1,134.3,134.3,134.3,134.3,134.3,134.3,134.4
110,140.9,138.6,133.7,133.6,133.5,134.1,134.3,134.3,134.3,134.3,134.3,134.1,134.4,134.4,134.4,134.4,134.4,134.4,134.5
111,141,138.9,133.9,133.8,133.7,134.1,134.4,134.4,134.4,134.4,134.4,134.2,134.5,134.5,134.5,134.5,134.4,134.4,134.6
112,141,139.3,134,133.9,133.8,134.2,134.5,134.5,134.5,134.5,134.5,134.3,134.6,134.6,134.6,134.6,134.5,134.5,134.6
113,141.1,139.8,134.1,134,133.9,134.2,134.6,134.6,134.6,134.6,134.5,134.4,134.6,134.6,134.6,134.6,134.6,134.6,134.7
114,141.2,140.2,134.2,134.2,134,134.3,134.6,134.6,134.6,134.6,134.6,134.4,134.7,134.7,134.7,134.7,134.7,134.6,134.8
115,141.3,140.7,134.4,134.3,134.1,134.4,134.7,134.7,134.7,134.7,134.7,134.5,134.8,134.8,134.8,134.8,134.7,134.7,134.8
116,141.3,141.2,134.5,134.4,134.3,134.4,134.8,134.8,134.8,134.8,134.8,134.6,134.8,134.8,134.8,134.8,134.8,134.8,134.9
117,141.4,141.7,134.7,134.5,134.4,134.5,134.9,134.9,134.9,134.9,134.8,134.7,134.9,134.9,134.9,134.9,134.9,134.9,135
118,141.5,142.1,134.8,134.7,134.5,134.5,134.9,134.9,134.9,134.9,134.9,134.7,135,135,135,135,135,134.9,135.1
119,141.6,142.6,135,134.8,134.6,134.6,135,135,135,135,135,134.8,135.1,135.1,135.1,135.1,135,135,135.1
120,141.6,143,135.2,134.9,134.8,134.6,135.1,135.1,135.1,135.1,135.1,134.9,135.1,135.1,135.1,135.1,135.1,135.1,135.2
121,141.7,143.4,135.5,135,134.9,134.7,135.2,135.2,135.2,135.2,135.1,134.9,135.2,135.2,135.2,135.2,135.2,135.1,135.3
122,141.8,143.9,135.7,135.2,135,134.7,135.2,135.2,135.2,135.2,135.2,135,135.3,135.3,135.3,135.3,135.2,135.2,135.3
123,141.9,144.3,135.9,135.3,135.1,134.8,135.3,135.3,135.3,135.3,135.3,135.1,135.3,135.3,135.3,135.3,135.3,135.3,135.4
124,141.9,144.7,136.1,135.4,135.2,134.8,135.4,135.4,135.4,135.4,135.4,135.1,135.4,135.4,135.4,135.4,135.4,135.3,135.5
125,142,145.2,136.2,135.5,135.4,134.8,135.5,135.5,135.5,135.5,135.4,135.2,135.5,135.5,135.5,135.5,135.4,135.4,135.5
126,142.1,145.6,136.3,135.7,135.5,134.9,135.5,135.5,135.5,135.5,135.5,135.3,135.5,135.5,135.5,135.5,135.5,135.5,135.6
127,142.1,146,136.4,135.8,135.6,134.9,135.6,135.6,135.6,135.6,135.6,135.3,135.6,135.6,135.6,135.6,135.6,135.5,135.6
128,142.2,146.4,136.5,135.9,135.7,135,135.7,135.7,135.7,135.7,135.6,135.4,135.7,135.7,135.7,135.7,135.6,135.6,135.7
129,142.3,146.9,136.6,136,135.8,135,135.7,135.7,135.7,135.7,135.7,135.5,135.7,135.7,135.7,135.7,135.7,135.7,135.8
130,142.3,147.3,136.7,136.2,135.9,135,135.8,135.8,135.8,135.8,135.8,135.5,135.8,135.8,135.8,135.8,135.8,135.7,135.8
131,142.4,147.6,136.8,136.3,136,135.1,135.9,135.9,135.9,135.9,135.9,135.6,135.9,135.9,135.9,135.9,135.8,135.8,135.9
132,142.5,148.1,136.8,136.5,136.2,135.1,135.9,135.9,135.9,135.9,135.9,135.7,135.9,135.9,135.9,135.9,135.9,135.8,136
133,142.5,148.5,136.9,136.7,136.3,135.1,136,136,136,136,136,135.7,136,136,136,136,136,135.9,136
134,142.6,148.9,137,136.8,136.4,135.2,136.1,136.1,136.1,136.1,136.1,135.8,136.1,136.1,136.1,136.1,136,136,136.1
135,142.7,149.3,137.1,136.9,136.5,135.2,136.1,136.1,136.1,136.1,136.1,135.8,136.1,136.1,136.1,136.1,136.1,136,136.1
136,142.7,150.2,137.1,137,136.6,135.2,136.2,136.2,136.2,136.2,136.2,135.9,136.2,136.2,136.2,136.2,136.1,136.1,136.2
137,142.8,151.3,137.3,137.1,136.7,135.3,136.3,136.3,136.3,136.3,136.3,136,136.3,136.3,136.3,136.3,136.2,136.1,136.3
138,142.9,152.4,137.5,137.2,136.8,135.3,136.3,136.3,136.3,136.3,136.3,136,136.3,136.3,136.3,136.3,136.3,136.2,136.3
139,142.9,153.5,137.7,137.3,136.9,135.3,136.4,136.4,136.4,136.4,136.4,136.1,136.4,136.4,136.4,136.4,136.3,136.3,136.4
140,143,154.6,137.8,137.3,137,135.4,136.5,136.5,136.5,136.5,136.5,136.1,136.4,136.4,136.4,136.4,136.4,136.3,136.4
141,143,155.7,137.9,137.4,137.1,135.5,136.5,136.5,136.5,136.5,136.5,136.2,136.5,136.5,136.5,136.5,136.5,136.4,136.5
142,143.1,156.8,138.2,137.5,137.2,135.5,136.6,136.6,136.6,136.6,136.6,136.3,136.6,136.6,136.6,136.6,136.5,136.4,136.5
143,143.2,157.9,139,137.6,137.3,135.6,136.7,136.7,136.7,136.7,136.6,136.3,136.6,136.6,136.6,136.6,136.6,136.5,136.6
144,143.2,159.1,139.7,137.6,137.4,135.7,136.7,136.7,136.7,136.7,136.7,136.4,136.7,136.7,136.7,136.7,136.6,136.6,136.7
145,143.3,160.2,140.4,137.7,137.5,135.7,136.8,136.8,136.8,136.8,136.8,136.4,136.7,136.7,136.7,136.7,136.7,136.6,136.7
146,143.3,161.3,141.2,137.9,137.6,135.8,136.8,136.8,136.8,136.8,136.8,136.5,136.8,136.8,136.8,136.8,136.7,136.7,136.8
147,143.4,162.4,142.2,138.1,137.7,135.9,136.9,136.9,136.9,136.9,136.9,136.5,136.9,136.9,136.9,136.9,136.8,136.7,136.8
148,143.5,163.5,143.3,138.2,137.8,136,137,137,137,137,137,136.6,136.9,136.9,136.9,136.9,136.9,136.8,136.9
149,143.5,164.6,144.4,138.4,137.8,136,137,137,137,137,137,136.7,137,137,137,137,136.9,136.8,136.9
150,143.6,165.7,145.5,138.5,137.9,136.1,137.1,137.1,137.1,137.1,137.1,136.7,137,137,137,137,137,136.9,137
151,143.6,166.8,146.7,139.2,138,136.2,137.1,137.1,137.1,137.1,137.1,136.8,137.1,137.1,137.1,137.1,137,137,137
152,143.7,167.9,147.8,140.1,138,136.3,137.2,137.2,137.2,137.2,137.2,136.8,137.1,137.1,137.1,137.1,137.1,137,137.1
153,143.7,169,148.9,140.9,138.1,136.4,137.3,137.3,137.3,137.3,137.3,136.9,137.2,137.2,137.2,137.2,137.1,137.1,137.2
154,143.8,170.2,150,142.1,138.1,136.4,137.3,137.3,137.3,137.3,137.3,136.9,137.3,137.3,137.3,137.3,137.2,137.1,137.2
155,143.9,171.3,151.1,143.2,138.2,136.5,137.4,137.4,137.4,137.4,137.4,137,137.3,137.3,137.3,137.3,137.3,137.2,137.3
156,143.9,172.4,152.2,144.3,138.3,136.6,137.4,137.4,137.4,137.4,137.4,137,137.4,137.4,137.4,137.4,137.3,137.2,137.3
157,144,173.5,153.4,145.4,138.5,136.7,137.5,137.5,137.5,137.5,137.5,137.1,137.4,137.4,137.4,137.4,137.4,137.3,137.4
158,144,174.6,154.5,146.5,138.7,136.7,137.5,137.6,137.6,137.6,137.6,137.1,137.5,137.5,137.5,137.5,137.4,137.3,137.4
159,144.1,175.8,155.6,147.7,138.9,136.8,137.6,137.6,137.6,137.6,137.6,137.2,137.5,137.5,137.5,137.5,137.5,137.4,137.5
160,144.1,176.9,156.7,148.8,139,136.9,137.7,137.7,137.7,137.7,137.7,137.2,137.6,137.6,137.6,137.6,137.5,137.4,137.5
161,144.2,177.1,157.8,149.9,139.5,137,137.7,137.7,137.7,137.7,137.7,137.3,137.6,137.6,137.6,137.6,137.6,137.5,137.6
162,144.2,177.3,158.9,151,140.4,137,137.8,137.8,137.8,137.8,137.8,137.4,137.7,137.7,137.7,137.7,137.6,137.5,137.6
163,144.3,177.4,160.1,152.1,141.5,137.1,137.8,137.8,137.8,137.8,137.8,137.4,137.7,137.7,137.7,137.7,137.7,137.6,137.7
164,144.4,177.5,161.2,153.3,142.6,137.2,137.9,137.9,137.9,137.9,137.9,137.5,137.8,137.8,137.8,137.8,137.7,137.6,137.7
165,144.4,177.6,162.3,154.4,143.8,137.3,137.9,137.9,137.9,137.9,137.9,137.5,137.8,137.8,137.8,137.8,137.8,137.7,137.8
166,144.5,177.7,163.4,155.5,144.9,137.3,138,138,138,138,138,137.6,137.9,137.9,137.9,137.9,137.8,137.7,137.8
167,144.5,177.8,164.6,156.6,146,137.4,138,138.1,138.1,138.1,138.1,137.6,138,138,138,137.9,137.9,137.8,137.9
168,144.6,177.9,165.7,157.8,147.1,137.5,138.1,138.1,138.1,138.1,138.1,137.7,138,138,138,138,137.9,137.8,137.9
169,144.6,177.9,166.6,158.9,148.3,137.5,138.2,138.2,138.2,138.2,138.2,137.7,138.1,138.1,138.1,138.1,138,137.9,138
170,144.7,178,167,160,149.4,137.6,138.2,138.2,138.2,138.2,138.2,137.7,138.1,138.1,138.1,138.1,138.1,137.9,138
171,144.7,178.1,167.3,161.1,150.5,137.7,138.3,138.3,138.3,138.3,138.3,137.8,138.2,138.2,138.2,138.2,138.1,138,138.1
172,144.8,178.2,167.7,162.3,151.7,137.7,138.3,138.3,138.3,138.3,138.3,137.8,138.2,138.2,138.2,138.2,138.2,138,138.1
