9400MHz / Lb(0.05) dB
,h2(m),1000,1000,1000,1000,1000,10000,10000,10000,10000,10000,10000,20000,20000,20000,20000,20000,20000,20000
,h1(m),1.5,15,30,60,1000,1.5,15,30,60,1000,10000,1.5,15,30,60,1000,10000,20000
D (km),FSL
0,111.899518,107.763286,107.644784,107.511199,107.237732,-0.000000,127.809682,127.797681,127.784328,127.757563,126.876213,-0.000000,133.830933,133.824803,133.817986,133.804338,133.366435,127.756703,-0.000000
1,114.916617,110.399034,110.381201,110.361119,110.320558,109.541821,127.847283,127.842402,127.836960,127.826019,127.438758,111.516597,133.840572,133.837976,133.835088,133.829295,133.637768,130.178994,111.652532
2,118.899900,114.044273,114.041443,114.037981,114.032092,114.318815,127.955642,127.950960,127.945742,127.935268,127.566795,117.342454,133.868157,133.865595,133.862744,133.857023,133.668006,130.287261,117.549946
3,121.911787,116.912718,116.911758,116.910838,116.909212,117.231162,128.129806,128.125412,128.120536,128.110716,127.769934,120.592290,133.913643,133.911134,133.908336,133.902725,133.717339,130.455604,120.980497
4,124.216871,119.147036,119.147416,119.148044,119.149405,119.417513,128.361492,128.357452,128.352981,128.343969,128.033995,122.842997,133.976392,133.973937,133.971211,133.965734,133.784992,130.677761,123.373935
5,126.062283,120.955100,120.956128,120.957218,120.959648,121.176277,128.641038,128.637379,128.633335,128.625179,128.347694,124.535183,134.055554,134.053174,134.050526,134.045208,133.869952,130.943831,125.162687
6,127.594843,122.468332,122.469390,122.470640,122.473300,122.651665,128.958843,128.955493,128.951760,128.944336,128.699027,125.884017,134.150130,134.147834,134.145267,134.140141,133.971047,131.243741,126.622665
7,128.902601,123.767481,123.768626,123.769968,123.772709,123.929394,129.305701,129.302729,129.299411,129.292793,129.076974,127.005490,134.259015,134.256803,134.254340,134.249396,134.086982,131.568109,127.842145
8,130.042089,124.905213,124.906339,124.907725,124.910335,125.049611,129.672775,129.670146,129.667221,129.661378,129.472166,127.950443,134.380998,134.378878,134.376520,134.371785,134.216393,131.908953,128.870295
9,131.051165,125.917171,125.918318,125.919558,125.922091,126.047022,130.052995,130.050652,130.048086,130.042912,129.877145,128.780422,134.514872,134.512841,134.510581,134.506068,134.357864,132.250558,129.766201
10,131.956300,126.828506,126.829555,126.830721,126.833205,126.946238,130.440554,130.438503,130.436251,130.431668,130.286127,129.505082,134.659369,134.657436,134.655281,134.650981,134.510020,132.592849,130.559532
11,132.776708,127.657480,127.658905,127.660531,127.663619,127.765098,130.830941,130.829105,130.827103,130.823104,130.694736,130.164198,134.813304,134.811453,134.809400,134.805299,134.671511,132.935833,131.270307
12,133.526772,128.417915,128.419424,128.421044,128.424207,128.516953,131.220620,131.219004,131.217202,131.213658,131.100867,130.755959,134.975884,134.974094,134.972098,134.968090,134.841054,133.276669,131.904273
13,134.217644,129.120551,129.122078,129.123758,129.126957,129.212102,131.606920,131.605509,131.603927,131.600792,131.501040,131.297675,135.145574,135.143876,135.141986,135.138181,135.017428,133.613290,132.487943
14,134.857789,129.773552,129.775218,129.776912,129.780195,129.858680,131.987992,131.986739,131.985327,131.982468,131.893736,131.802866,135.321320,135.319698,135.317899,135.314285,135.199517,133.937125,133.021022
15,135.454235,130.383726,130.385432,130.387212,130.390623,130.463132,132.362521,132.361329,132.360031,132.357418,132.277839,132.275526,135.502096,135.500560,135.498844,135.495426,135.386307,134.250580,133.507794
16,136.012502,130.956426,130.958201,130.960099,130.963547,131.030800,132.729295,132.728349,132.727066,132.724757,132.652732,132.710522,135.687019,135.685553,135.683931,135.680675,135.576834,134.557293,133.963913
17,136.537130,131.496062,131.497974,131.499937,131.503558,131.566004,133.087920,133.087017,133.085997,133.083730,133.018089,133.122517,135.875230,135.873848,135.872303,135.869219,135.770277,134.857017,134.393170
18,137.031994,132.006402,132.008412,132.010482,132.014287,132.072295,133.438121,133.437257,133.436274,133.434368,133.373685,133.514120,136.066002,136.064690,136.063222,136.060292,135.966323,135.149572,134.788340
19,137.500286,132.490557,132.492652,132.494855,132.498839,132.552799,133.779609,133.778784,133.777868,133.776017,133.719710,133.887457,136.258652,136.257404,136.256003,136.253223,136.163975,135.434962,135.158746
20,137.944620,132.951064,132.953428,132.955642,132.959833,133.023723,134.112440,134.111561,134.110962,134.109033,134.056037,134.244413,136.452583,136.451390,136.450060,136.447398,136.362498,135.708811,135.511087
21,138.367389,133.390252,133.392716,133.395187,133.399560,133.461341,134.438735,134.437941,134.436909,134.434798,134.383069,134.583878,136.647275,136.646124,136.644852,136.642307,136.561389,135.973094,135.847149
22,138.770603,133.810070,133.812704,133.815310,133.819935,133.879890,134.757019,134.756111,134.755094,134.753111,134.701012,134.908615,136.842226,136.841125,136.839918,136.837484,136.760204,136.230936,136.168434
23,139.155987,134.212176,134.214971,134.217712,134.222572,134.281091,135.066669,135.065815,135.064862,135.062924,135.010110,135.221244,137.037050,137.036010,137.034836,137.032512,136.958561,136.482538,136.468739
24,139.524939,134.597882,134.600973,134.603876,134.608963,134.666381,135.368094,135.367279,135.366351,135.364518,135.310789,135.522753,137.231386,137.230377,137.229269,137.227035,137.156109,136.728115,136.754500
25,139.878932,134.968564,134.971875,134.974982,134.980275,135.037019,135.661605,135.660807,135.659911,135.658127,135.603205,135.813922,137.424966,137.423976,137.422903,137.420770,137.352580,136.967906,137.029542
26,140.219073,135.325170,135.328778,135.332033,135.337474,135.394164,135.947445,135.946675,135.945794,135.944052,135.888886,136.095545,137.617437,137.616482,137.615467,137.613382,137.547683,137.202099,137.294781
27,140.546438,135.668525,135.672441,135.675865,135.681331,135.738768,136.225903,136.225138,136.224267,136.222571,136.168266,136.368292,137.808648,137.807755,137.806756,137.804763,137.741270,137.430890,137.550960
28,140.861903,135.999108,136.003437,136.006972,136.012480,136.071781,136.497240,136.496493,136.495642,136.493990,136.440285,136.632740,137.998409,137.997515,137.996585,137.994611,137.933175,137.654090,137.798750
29,141.166328,136.317223,136.322161,136.325903,136.331702,136.394007,136.761761,136.761013,136.760196,136.758554,136.705187,136.889348,138.186540,138.185697,138.184642,138.182837,138.123169,137.870058,138.038770
30,141.460440,136.623138,136.629111,136.633419,136.640250,136.706101,137.019741,137.019003,137.018185,137.016528,136.963352,137.138677,138.372899,138.372071,138.371206,138.369300,138.311228,138.081368,138.266572
31,141.744950,136.917721,136.925436,136.930755,136.939126,137.008758,137.271463,137.270713,137.269873,137.268245,137.215018,137.381677,138.557460,138.556648,138.555714,138.553789,138.497235,138.288232,138.486698
32,142.020441,137.201379,137.211327,137.217945,137.228094,137.301424,137.517095,137.516344,137.515511,137.513904,137.460468,137.618356,138.739923,138.739121,138.738237,138.736502,138.681192,138.490781,138.700747
33,142.287480,137.473904,137.486259,137.494253,137.506128,137.582985,137.756936,137.756214,137.755386,137.753771,137.700006,137.848825,138.920416,138.919700,138.918803,138.917068,138.862822,138.689179,138.909129
34,142.546539,137.737887,137.752695,137.762032,137.775600,137.856060,137.991276,137.990522,137.989710,137.988059,137.933825,138.073158,139.098894,139.098094,139.097254,139.095674,139.042246,138.883618,139.112145
35,142.798107,137.993241,138.010501,138.021160,138.036357,138.120468,138.220234,138.219497,138.218696,138.217032,138.162242,138.292269,139.275203,139.274526,139.273668,139.272047,139.219508,139.074190,139.310107
36,143.042598,138.241042,138.260760,138.272750,138.289586,138.377512,138.444103,138.443356,138.442522,138.440870,138.385409,138.505819,139.449393,139.448685,139.447919,139.446253,139.394392,139.261115,139.503325
37,143.280407,138.481255,138.503514,138.516843,138.535333,138.627267,138.663055,138.662308,138.661450,138.659798,138.603575,138.714514,139.621431,139.620764,139.619852,139.618220,139.567208,139.444407,139.692017
38,143.511881,138.715844,138.739732,138.754454,138.774631,138.870844,138.877300,138.876544,138.875717,138.874004,138.816935,138.918189,139.791330,139.790625,139.789770,139.788168,139.737530,139.624290,139.876449
39,143.737330,138.944205,138.970244,138.985071,139.007012,139.107739,139.087020,139.086223,139.085375,139.083667,139.025712,139.117475,139.959371,139.958550,139.957617,139.955886,139.905651,139.800851,140.056812
40,143.957109,139.166270,139.195068,139.211077,139.233298,139.338841,139.292353,139.291569,139.290712,139.288967,139.230059,139.312351,140.126316,140.125499,140.124565,140.122751,140.071494,139.974190,140.232552
41,144.171467,139.382651,139.414382,139.431915,139.454669,139.564995,139.493525,139.492719,139.491841,139.490104,139.430159,139.503028,140.291016,140.290204,140.289361,140.287524,140.235065,140.144434,140.403259
42,144.380659,139.592655,139.627463,139.646540,139.671231,139.785232,139.690634,139.689838,139.688951,139.687153,139.626146,139.689823,140.453589,140.452783,140.451868,140.450099,140.396471,140.311716,140.570556
43,144.584923,139.796480,139.834554,139.855268,139.881903,139.999763,139.883873,139.883076,139.882142,139.880375,139.818223,139.872473,140.613972,140.613172,140.612304,140.610557,140.555707,140.476412,140.734590
44,144.784500,139.996243,140.037783,140.060235,140.088996,140.211620,140.073394,140.072580,140.071659,140.069822,140.006527,140.051598,140.772204,140.771437,140.770532,140.768752,140.712750,140.638622,140.895483
45,144.979598,140.190426,140.235621,140.259913,140.290822,140.418537,140.259315,140.258493,140.257544,140.255733,140.191195,140.227105,140.928356,140.927521,140.926680,140.924942,140.868490,140.797729,141.053415
46,145.170412,140.379175,140.428238,140.454447,140.487658,140.620707,140.441767,140.440922,140.440007,140.438064,140.372351,140.399313,141.082400,141.081613,141.080735,141.078977,141.022609,140.954249,141.208397
47,145.357170,140.562673,140.615761,140.643998,140.679625,140.818287,140.620868,140.620007,140.619046,140.617105,140.550142,140.568187,141.234409,141.233620,141.232706,141.230983,141.174663,141.108377,141.360653
48,145.539913,140.740904,140.798321,140.828711,140.866855,141.011436,140.796754,140.795873,140.794901,140.792928,140.724679,140.733944,141.384406,141.383601,141.382720,141.380967,141.324626,141.259975,141.510253
49,145.718927,140.915583,140.977557,141.010208,141.051033,141.202412,140.969515,140.968622,140.967607,140.965636,140.896046,140.896588,141.532390,141.531599,141.530724,141.528959,141.472545,141.409239,141.657338
50,145.894341,141.086023,141.152791,141.187820,141.231456,141.390415,141.139267,141.138356,141.137348,141.135298,141.064408,141.056337,141.678441,141.677651,141.676770,141.675009,141.618458,141.555945,141.801876
51,146.066278,141.251811,141.323628,141.361175,141.407791,141.575760,141.306124,141.305202,141.304155,141.302085,141.229830,141.213234,141.822574,141.821785,141.820901,141.819144,141.762421,141.700481,141.944095
52,146.234890,141.413063,141.490194,141.530344,141.580018,141.757565,141.470154,141.469216,141.468165,141.466049,141.392450,141.367421,141.964825,141.964033,141.963145,141.961391,141.904457,141.842804,142.084035
53,146.400270,141.569833,141.652528,141.695511,141.748383,141.935965,141.631478,141.630515,141.629454,141.627294,141.552281,141.518952,142.105225,142.104438,142.103553,142.101780,142.044599,141.983061,142.221730
54,146.562571,141.722241,141.810769,141.856592,141.912874,142.110951,141.790165,141.789199,141.788101,141.785915,141.709491,141.667926,142.243823,142.243029,142.242150,142.240358,142.182891,142.121399,142.357287
55,146.721919,141.870380,141.965030,142.013856,142.073701,142.282760,141.946310,141.945323,141.944217,141.941990,141.864143,141.814439,142.380643,142.379851,142.378957,142.377167,142.319379,142.257211,142.491051
56,146.878329,142.014226,142.115306,142.167317,142.230838,142.451463,142.100004,142.099002,142.097866,142.095596,142.016319,141.959267,142.515738,142.514933,142.514034,142.512239,142.454083,142.391327,142.622239
57,147.032083,142.154098,142.261782,142.317110,142.384500,142.617175,142.251290,142.250280,142.249137,142.246822,142.166089,142.102418,142.649109,142.648301,142.647406,142.645596,142.587050,142.523483,142.751858
58,147.183049,142.291237,142.406033,142.464803,142.536258,142.781692,142.400274,142.399246,142.398079,142.395725,142.313535,142.243272,142.780819,142.779994,142.779097,142.777283,142.718325,142.653781,142.879419
59,147.331485,142.424478,142.546585,142.608999,142.684623,142.943464,142.547029,142.545972,142.544805,142.542393,142.458727,142.381913,142.910879,142.910063,142.909157,142.907327,142.847919,142.782348,143.005620
60,147.477440,142.553834,142.683629,142.749785,142.829798,143.102574,142.691591,142.690513,142.689309,142.686895,142.601746,142.518396,143.039343,143.038521,143.037601,143.035766,142.975890,142.909094,143.130173
61,147.620972,142.679332,142.817012,142.887132,142.971862,143.259122,142.834043,142.832957,142.831732,142.829262,142.742625,142.652796,143.166226,143.165400,143.164483,143.162631,143.102260,143.034093,143.252960
62,147.762161,142.801026,142.946953,143.021186,143.110616,143.413090,142.974446,142.973340,142.972102,142.969595,142.881471,142.785157,143.291587,143.290758,143.289821,143.287946,143.227093,143.157455,143.373840
63,147.901100,142.918980,143.073502,143.151960,143.246301,143.564643,143.112872,143.111744,143.110488,143.107932,143.018293,142.915569,143.415426,143.414578,143.413692,143.411763,143.350347,143.279149,143.493134
64,148.037853,143.033235,143.196643,143.279531,143.379030,143.713818,143.249351,143.248215,143.246931,143.244355,143.153188,143.044056,143.537784,143.536937,143.536018,143.534098,143.472127,143.399265,143.610933
65,148.172546,143.143901,143.316449,143.403948,143.508775,143.860665,143.383959,143.382802,143.381495,143.378867,143.286197,143.170694,143.658706,143.657852,143.656917,143.654976,143.592431,143.517821,143.727226
66,148.305072,143.250826,143.432964,143.525163,143.635495,144.005254,143.516745,143.515564,143.514239,143.511569,143.417374,143.295527,143.778205,143.777346,143.776417,143.774447,143.711315,143.634864,143.841911
67,148.435654,143.354232,143.546288,143.643319,143.759350,144.147640,143.647757,143.646560,143.645214,143.642492,143.546761,143.418599,143.896321,143.895469,143.894471,143.892534,143.828772,143.750403,143.955305
68,148.564351,143.454160,143.656283,143.758465,143.880344,144.287889,143.777034,143.775821,143.774456,143.771698,143.674425,143.539975,144.013066,144.012182,144.011213,144.009245,143.944873,143.864541,144.067078
69,148.691088,143.550500,143.763141,143.870568,143.998531,144.426027,143.904630,143.903396,143.902018,143.899215,143.800393,143.659670,144.128502,144.127570,144.126611,144.124637,144.059625,143.977238,144.177455
70,148.816038,143.643424,143.866847,143.979658,144.113914,144.562110,144.030596,144.029347,144.027941,144.025104,143.924728,143.777762,144.242605,144.241704,144.240709,144.238701,144.173036,144.088558,144.286523
71,148.939214,143.732927,143.967491,144.085876,144.226589,144.696188,144.154976,144.153695,144.152267,144.149386,144.047470,143.894285,144.355453,144.354545,144.353554,144.351495,144.285161,144.198543,144.394382
72,149.060668,143.819199,144.065249,144.189287,144.336625,144.828532,144.277784,144.276507,144.275051,144.272126,144.168644,144.009299,144.467018,144.466105,144.465091,144.463046,144.396023,144.307208,144.500788
73,149.180457,143.902274,144.159978,144.289993,144.444222,144.959082,144.399094,144.397795,144.396326,144.393357,144.288319,144.122772,144.577383,144.576446,144.575420,144.573361,144.505648,144.414584,144.605931
74,149.298605,143.982031,144.251825,144.387889,144.549179,145.087779,144.518926,144.517608,144.516121,144.513106,144.406508,144.234806,144.686522,144.685593,144.684556,144.682466,144.614049,144.520709,144.709911
75,149.415185,144.058543,144.340672,144.482933,144.651451,145.214654,144.637322,144.635990,144.634479,144.631428,144.523253,144.345421,144.794494,144.793532,144.792541,144.790402,144.721263,144.625608,144.812926
76,149.530204,144.131807,144.426580,144.575217,144.751164,145.339791,144.754330,144.752977,144.751438,144.748340,144.638599,144.454650,144.901316,144.900398,144.899302,144.897182,144.827331,144.729293,144.914299
77,149.643720,144.249635,144.509596,144.664753,144.848325,145.463046,144.869958,144.868588,144.867039,144.863899,144.752570,144.562456,145.007024,145.006045,145.004965,145.002823,144.932219,144.831806,145.014770
78,149.755780,144.381436,144.589724,144.751589,144.942990,145.584675,144.984262,144.982869,144.981292,144.978119,144.865215,144.669066,145.111568,145.110603,145.109552,145.107347,145.036019,144.933177,145.114052
79,149.866454,144.542796,144.666991,144.835717,145.035039,145.704621,145.097265,145.095852,145.094251,145.091032,144.976547,144.774366,145.215047,145.214077,145.213002,145.210792,145.138679,145.033419,145.212278
80,149.975680,144.702952,144.741489,144.917182,145.124626,145.822855,145.208992,145.207563,145.205943,145.202685,145.086614,144.878364,145.317472,145.316487,145.315383,145.313173,145.240324,145.133324,145.309418
81,150.083533,144.861971,144.813252,144.996031,145.211773,145.939463,145.319472,145.318030,145.316394,145.313084,145.195426,144.981175,145.418855,145.417855,145.416759,145.414504,145.340867,145.232324,145.405487
82,150.190049,145.019877,144.903073,145.072289,145.296488,146.054480,145.428761,145.427299,145.425640,145.422285,145.303039,145.082725,145.519185,145.518174,145.517044,145.514801,145.440395,145.330247,145.500595
83,150.295370,145.176813,145.020197,145.145903,145.378784,146.167903,145.536850,145.535372,145.533694,145.530301,145.409461,145.183179,145.618505,145.617506,145.616369,145.614106,145.538892,145.427102,145.594601
84,150.399401,145.332651,145.160245,145.217033,145.458660,146.279788,145.643792,145.642301,145.640596,145.637161,145.514732,145.282389,145.716897,145.715839,145.714697,145.712326,145.636387,145.522929,145.687682
85,150.502148,145.487379,145.312615,145.290954,145.536188,146.390124,145.749596,145.748095,145.746366,145.742886,145.618877,145.380537,145.814252,145.813216,145.812062,145.809731,145.732959,145.617741,145.779778
86,150.603719,145.641099,145.463944,145.405586,145.611340,146.498967,145.854309,145.852777,145.851041,145.847522,145.721903,145.477597,145.910683,145.909633,145.908470,145.906121,145.828484,145.711559,145.870951
87,150.704123,145.793802,145.614371,145.528491,145.684188,146.606318,145.957934,145.956387,145.954622,145.951054,145.823832,145.573519,146.006184,146.005152,146.003951,146.001587,145.923140,145.804399,145.961152
88,150.803413,145.945529,145.763901,145.676886,145.754735,146.712251,146.060496,146.058940,146.057148,146.053539,145.924717,145.668450,146.100756,146.099738,146.098499,146.096123,146.016851,145.896275,146.050481
89,150.901522,146.096180,145.912538,145.824296,145.822985,146.816645,146.162055,146.160452,146.158654,146.154997,146.024573,145.762332,146.194480,146.193390,146.192240,146.189742,146.109651,145.987236,146.138905
90,150.998564,146.245867,146.060290,145.970870,145.909389,146.919669,146.262562,146.260965,146.259139,146.255440,146.123418,145.855207,146.287238,146.286158,146.284942,146.282505,146.201599,146.077282,146.226434
91,151.094497,146.394518,146.207214,146.116715,146.019663,147.021299,146.362092,146.360473,146.358629,146.354895,146.221248,145.947093,146.379164,146.378097,146.376852,146.374405,146.292625,146.166420,146.313133
92,151.189418,146.540378,146.351323,146.259601,146.143466,147.118999,146.460716,146.459439,146.457993,146.455015,146.318128,146.038013,146.470252,146.469158,146.467907,146.465434,146.382815,146.254690,146.398969
