300MHz / Lb(0.05) dB
,h2(m),1000,1000,1000,1000,1000,10000,10000,10000,10000,10000,10000,20000,20000,20000,20000,20000,20000,20000
,h1(m),1.5,15,30,60,1000,1.5,15,30,60,1000,10000,1.5,15,30,60,1000,10000,20000
D (km),FSL
0,81.979386,77.824264,77.706015,77.572710,77.299804,-0.000000,97.838160,97.826412,97.813339,97.787135,96.923355,-0.000000,103.859412,103.853533,103.846997,103.833910,103.413577,97.836345,-0.000000
1,84.996485,80.452325,80.434669,80.414782,80.374607,79.602840,97.875505,97.870877,97.865716,97.855337,97.485710,81.596447,103.868986,103.866643,103.864035,103.858804,103.684865,100.258738,81.732389
2,88.979768,84.082254,84.079533,84.076194,84.070544,84.361143,97.983095,97.978668,97.973733,97.963825,97.613146,87.422264,103.896376,103.894068,103.891498,103.886341,103.714966,100.366982,87.629795
3,91.991655,86.933420,86.932538,86.931703,86.930247,87.254825,98.155992,98.151856,98.147266,98.138019,97.815298,90.672099,103.941538,103.939283,103.936768,103.931723,103.764071,100.535325,91.060345
4,94.296739,89.149791,89.150231,89.150924,89.152414,89.422516,98.385938,98.382159,98.377979,98.369550,98.078001,92.922780,104.003831,104.001632,103.999191,103.994282,103.831404,100.757482,93.453746
5,96.142151,90.939624,90.940699,90.941841,90.944375,91.162614,98.663305,98.659913,98.656166,98.648604,98.390025,94.614952,104.082407,104.080286,104.077925,104.073181,103.915954,101.023553,95.242497
6,97.674620,92.436960,92.435572,92.436867,92.439613,92.619341,98.978539,98.975463,98.972034,98.965216,98.739393,95.963766,104.176271,104.174235,104.171958,104.167412,104.016549,101.323464,96.702475
7,98.982492,93.986240,93.716335,93.717713,93.720528,93.878400,99.322473,99.319782,99.316777,99.310785,99.115121,97.085219,104.284317,104.282370,104.280199,104.275842,104.131898,101.647833,97.921929
8,100.121957,95.678041,94.835523,94.836939,94.839614,94.979946,99.686315,99.683976,99.681374,99.676177,99.507877,98.030175,104.405341,104.403489,104.401427,104.397286,104.260638,101.988677,98.950079
9,101.131014,97.387466,95.828939,95.830208,95.832799,95.958690,100.063038,100.060995,100.058763,100.054257,99.910236,98.860135,104.538138,104.536379,104.534420,104.530510,104.401359,102.330261,99.845970
10,102.036168,98.999901,96.721592,96.722784,96.725317,96.839241,100.446873,100.445132,100.443226,100.439335,100.316442,99.584798,104.681446,104.679789,104.677941,104.674254,104.552686,102.672554,100.639302
11,102.856576,100.447048,97.532342,97.533988,97.537121,97.639438,100.833339,100.831826,100.830182,100.826900,100.722143,100.243918,104.834089,104.832515,104.830775,104.827297,104.713277,103.015539,101.350056
12,103.606647,101.706093,98.274248,98.275886,98.279088,98.372631,101.218931,101.217649,101.216219,101.213420,101.125258,100.835662,104.995273,104.993768,104.992090,104.988719,104.881850,103.356376,101.984023
13,104.297471,102.779304,98.958281,98.959976,98.963209,99.049123,101.601000,101.599936,101.598740,101.596378,101.522317,101.377383,105.163471,105.162065,105.160499,105.157342,105.057191,103.693000,102.567694
14,104.937671,103.683217,99.592793,99.594500,99.597814,99.677045,101.977718,101.976825,101.975814,101.973759,101.911820,101.882579,105.337636,105.336312,105.334843,105.331892,105.238186,104.016815,103.100752
15,105.534089,104.453703,100.184379,100.186168,100.189604,100.262846,102.347786,102.346968,102.346087,102.344309,102.292661,102.355227,105.516748,105.515516,105.514138,105.511397,105.423825,104.330272,103.587525
16,106.092337,105.116836,100.738518,100.740420,100.743891,100.811865,102.710008,102.709449,102.708600,102.707158,102.664234,102.790229,105.699930,105.698775,105.697498,105.694934,105.613150,104.636987,104.043646
17,106.617004,105.688497,101.259661,101.261627,101.265265,101.328421,103.064002,103.063501,103.062929,103.061563,103.026220,103.202228,105.886328,105.885264,105.884072,105.881694,105.805343,104.936714,104.472904
18,107.111872,106.468502,101.751476,101.753543,101.757359,101.816068,103.409501,103.409054,103.408537,103.407563,103.378400,103.593837,106.075221,106.074234,106.073127,106.070919,106.000098,105.229271,104.868054
19,107.580125,107.375938,102.217097,102.219292,102.223283,102.277930,103.746225,103.745833,103.745399,103.744517,103.720970,103.967179,106.265930,106.265014,106.263983,106.261942,106.196415,105.514664,105.238462
20,108.024500,108.243505,102.659261,102.661466,102.665658,102.730215,104.074236,104.073808,104.073705,104.072782,104.053810,104.324141,106.457863,106.457010,106.456058,106.454153,106.393565,105.788499,105.590805
21,108.447274,109.074502,103.079958,103.082409,103.086780,103.149195,104.395681,104.395349,104.394833,104.393761,104.377325,104.663603,106.650505,106.649703,106.648817,106.647047,106.591048,106.052785,105.926868
22,108.850468,109.871974,103.481372,103.483952,103.488568,103.549110,104.709053,104.708626,104.708144,104.707235,104.691723,104.988345,106.843358,106.842613,106.841802,106.840161,106.788424,106.310629,106.248156
23,109.235810,110.638572,103.865096,103.867804,103.872651,103.931678,105.013754,105.013397,105.012998,105.012171,104.997252,105.300979,107.036039,107.035363,107.034595,107.033083,106.985313,106.562234,106.548442
24,109.604823,111.376662,104.232597,104.235458,104.240533,104.298337,105.310196,105.309895,105.309538,105.308854,105.294340,105.602494,107.228191,107.227555,107.226862,107.225459,107.181365,106.807814,106.834205
25,109.958815,112.088231,104.585066,104.588119,104.593407,104.650345,105.598693,105.598425,105.598119,105.597521,105.583146,105.893667,107.419548,107.418940,107.418293,107.417010,107.376316,107.047608,107.109250
26,110.298947,112.774947,104.923633,104.926826,104.932278,104.988861,105.879489,105.879265,105.878995,105.878475,105.865210,106.175295,107.609763,107.609198,107.608618,107.607404,107.569876,107.281803,107.374492
27,110.626296,113.438143,105.249116,105.252464,105.257971,105.314839,106.152877,106.152676,106.152433,106.151998,106.140946,106.448047,107.798684,107.798191,107.797636,107.796534,107.761899,107.510597,107.630672
28,110.941749,114.078370,105.562162,105.565602,105.571156,105.629226,106.419120,106.418953,106.418750,106.418397,106.409303,106.712500,107.986124,107.985640,107.985165,107.984103,107.952220,107.733792,107.878465
29,111.246202,114.695578,105.863247,105.866828,105.872579,105.932826,106.678525,106.678375,106.678223,106.677919,106.670532,106.969113,108.171908,108.171483,108.170895,108.170022,108.140612,107.949763,108.118487
30,111.540314,115.289060,106.152867,106.156847,106.163373,106.226296,106.931367,106.931244,106.931111,106.930831,106.925008,107.218446,108.355894,108.355493,108.355104,108.354153,108.327053,108.161076,108.346276
31,111.824825,115.859869,106.432076,106.436796,106.444512,106.510379,107.177931,107.177814,107.177679,107.177466,107.172974,107.461452,108.538056,108.537682,108.537234,108.536287,108.511426,108.367943,108.566404
32,112.100309,116.411099,106.701954,106.707658,106.716793,106.785611,107.418388,107.418287,107.418179,107.418025,107.414712,107.698136,108.718099,108.717745,108.717359,108.716620,108.693734,108.570494,108.780456
33,112.367349,116.946073,106.963389,106.970169,106.980718,107.052520,107.653037,107.652982,107.652898,107.652776,107.650527,107.928609,108.896151,108.895891,108.895504,108.894788,108.873702,108.768895,108.988840
34,112.626407,117.466607,107.216930,107.224771,107.236727,107.311620,107.882167,107.882098,107.882049,107.881932,107.880612,108.152945,109.072168,109.071836,109.071515,109.070974,109.051453,108.963336,109.191859
35,112.877975,117.973698,107.462980,107.471881,107.485211,107.563346,108.105901,108.105866,108.105848,108.105758,108.105284,108.372060,109.245997,109.245797,109.245470,109.244912,109.227027,109.153911,109.389823
36,113.122466,118.467894,107.701845,107.711824,107.726551,107.808104,108.324531,108.324504,108.324472,108.324434,108.324697,108.585613,109.417692,109.417470,109.417245,109.416665,109.400215,109.340838,109.583044
37,113.360275,118.949679,107.933882,107.944954,107.961102,108.046281,108.538230,108.538221,108.538185,108.538185,108.539100,108.794311,109.587216,109.587046,109.586688,109.586165,109.571321,109.524133,109.771738
38,113.591750,119.419489,108.159311,108.171525,108.189131,108.278207,108.747207,108.747207,108.747222,108.747202,108.748687,108.997989,109.754586,109.754389,109.754098,109.753628,109.739926,109.704019,109.956173
39,113.817198,119.877737,108.378463,108.391854,108.410998,108.504213,108.951648,108.951625,108.951639,108.951663,108.953682,109.197277,109.920096,109.919793,109.919436,109.918848,109.906320,109.880582,110.136537
40,114.036977,120.324984,108.591568,108.606188,108.626940,108.724608,109.151688,109.151696,109.151721,109.151749,109.154237,109.392156,110.084485,110.084196,110.083850,110.083213,110.070428,110.053923,110.312271
41,114.251335,120.761606,108.798895,108.814840,108.837219,108.939583,109.347555,109.347558,109.347583,109.347658,109.350537,109.582835,110.246616,110.246343,110.246097,110.245461,110.232255,110.224170,110.482981
42,114.460527,121.188023,109.000626,109.017919,109.042111,109.149465,109.539347,109.539379,109.539414,109.539469,109.542717,109.769633,110.406607,110.406350,110.406045,110.405500,110.391909,110.391454,110.650279
43,114.664789,121.604638,109.196999,109.215727,109.241748,109.354481,109.727258,109.727306,109.727316,109.727441,109.730977,109.952284,110.564396,110.564156,110.563909,110.563410,110.549386,110.556154,110.814316
44,114.864368,122.011899,109.388198,109.408442,109.436446,109.554850,109.911439,109.911489,109.911530,109.911627,109.915457,110.131410,110.720024,110.719826,110.719556,110.719047,110.704662,110.718366,110.975210
45,115.059476,122.410197,109.574395,109.596248,109.626261,109.750745,110.092009,110.092068,110.092103,110.092265,110.096292,110.306919,110.873560,110.873307,110.873111,110.872667,110.858639,110.877475,111.133144
46,115.250284,122.799850,109.755768,109.779302,109.811474,109.942372,110.269099,110.269153,110.269240,110.269315,110.273607,110.479127,111.024979,111.024783,111.024564,111.024123,111.010979,111.033997,111.288128
47,115.437010,123.181285,109.932455,109.957773,109.992216,110.129904,110.442827,110.442883,110.442946,110.443062,110.447549,110.648001,111.174353,111.174165,111.173922,111.173541,111.161246,111.188127,111.440385
48,115.619775,123.554732,110.104595,110.131814,110.168631,110.313514,110.613329,110.613384,110.613455,110.613580,110.618228,110.813759,111.321705,111.321513,111.321314,111.320928,111.309417,111.339726,111.589986
49,115.798797,123.920618,110.272342,110.301548,110.340877,110.493344,110.780696,110.780757,110.780807,110.780973,110.785731,110.976403,111.467036,111.466869,111.466687,111.466314,111.455537,111.488993,111.737072
50,115.974209,124.279230,110.435807,110.467101,110.509056,110.669567,110.945043,110.945104,110.945181,110.945311,110.950220,111.136151,111.610424,111.610269,111.610094,111.609748,111.599647,111.635701,111.881612
51,116.146146,124.630870,110.595101,110.628608,110.673352,110.842268,111.106484,111.106553,111.106611,111.106762,111.111761,111.293047,111.751887,111.751743,111.751578,111.751260,111.741801,111.780238,112.023832
52,116.314758,124.975864,110.757930,110.786145,110.833755,111.011624,111.265089,111.265159,111.265234,111.265381,111.270491,111.447232,111.891460,111.891324,111.891166,111.890876,111.882022,111.922563,112.163773
53,116.480138,125.314409,110.930840,110.939889,110.990501,111.177766,111.420977,111.421041,111.421126,111.421270,111.426426,111.598761,112.029173,112.029053,112.028911,112.028626,112.020345,112.062822,112.301469
54,116.642439,125.646853,111.112546,111.089767,111.143585,111.340695,111.574226,111.574297,111.574366,111.574525,111.579731,111.747733,112.165078,112.164961,112.164837,112.164559,112.156812,112.201162,112.437026
55,116.801787,125.973488,111.301955,111.236035,111.293207,111.500636,111.724904,111.724983,111.725065,111.725223,111.730470,111.894243,112.299196,112.299093,112.298967,112.298714,112.291471,112.336975,112.570790
56,116.958197,126.294346,111.498123,111.378710,111.439351,111.657664,111.873364,111.873213,111.873286,111.873443,111.878725,112.039076,112.431582,112.431478,112.431358,112.431126,112.424341,112.471093,112.701978
57,117.111951,126.610102,111.700137,111.517867,111.582165,111.811840,112.024577,112.019033,112.019118,112.019272,112.024565,112.182222,112.562238,112.562142,112.562038,112.561816,112.555470,112.603250,112.831597
58,117.262917,126.920436,111.907281,111.653581,111.721688,111.963282,112.180062,112.162531,112.162612,112.162769,112.168074,112.323072,112.691226,112.691123,112.691030,112.690829,112.684902,112.733550,112.959158
59,117.411353,127.225987,112.118824,111.785919,111.857939,112.112068,112.339283,112.303778,112.303879,112.304020,112.309320,112.461707,112.818557,112.818475,112.818385,112.818192,112.812648,112.862118,113.085361
60,117.557308,127.526884,112.336320,111.914966,111.991109,112.258280,112.501784,112.442829,112.442916,112.443094,112.448384,112.598185,112.944286,112.944208,112.944117,112.943944,112.938767,112.988866,113.209913
61,117.700840,127.823278,112.567503,112.040697,112.121274,112.402013,112.667113,112.579773,112.579860,112.580024,112.585300,112.732577,113.068427,113.068357,113.068281,113.068115,113.063281,113.113867,113.332699
62,117.842030,128.115390,112.802015,112.163249,112.248253,112.543255,112.834918,112.714647,112.714739,112.714909,112.720175,112.864932,113.191040,113.190978,113.190894,113.190732,113.186254,113.237230,113.453579
63,117.980968,128.403464,113.039151,112.282634,112.372273,112.682163,113.004886,112.847530,112.847626,112.847789,112.853017,112.995336,113.312124,113.312055,113.312035,113.311843,113.307644,113.358926,113.572871
64,118.117721,128.687690,113.278282,112.398923,112.493435,112.818772,113.176697,112.978470,112.978559,112.978742,112.983923,113.123814,113.431723,113.431665,113.431625,113.431467,113.427555,113.479043,113.690668
65,118.252414,128.968419,113.520259,112.512165,112.611720,112.953133,113.350116,113.107516,113.107603,113.107775,113.112935,113.250442,113.549878,113.549825,113.549782,113.549629,113.545987,113.597601,113.806959
66,118.384940,129.245386,113.763528,112.622316,112.727090,113.085312,113.524910,113.234725,113.234815,113.234988,113.240106,113.375266,113.666605,113.666558,113.666532,113.666377,113.662994,113.714645,113.921642
67,118.515522,129.519213,114.006518,112.729504,112.839691,113.215362,113.700878,113.360158,113.360247,113.360411,113.365477,113.498326,113.781943,113.781914,113.781834,113.781735,113.778572,113.830185,114.035034
68,118.644219,129.790094,114.247901,112.833776,112.949530,113.343347,113.882414,113.483846,113.483936,113.484105,113.489118,113.619690,113.895904,113.895856,113.895816,113.895713,113.892789,113.944325,114.146805
69,118.770956,130.057850,114.480180,112.935101,113.056656,113.469291,114.067028,113.605837,113.605934,113.606101,113.611052,113.739372,114.008551,114.008467,114.008449,114.008364,114.005652,114.057023,114.257178
70,118.895906,130.322999,114.709292,113.033506,113.161072,113.593249,114.252629,113.726192,113.726283,113.726457,113.731345,113.857450,114.119859,114.119817,114.119776,114.119683,114.117171,114.168344,114.366243
71,119.019082,130.585615,114.934083,113.129117,113.262866,113.715268,114.439059,113.844934,113.845023,113.845195,113.850035,113.973959,114.229907,114.229868,114.229844,114.229727,114.227401,114.278331,114.474099
72,119.140536,130.845890,115.141704,113.221846,113.361946,113.835423,114.626138,113.962127,113.962210,113.962380,113.967148,114.088957,114.338666,114.338634,114.338600,114.338522,114.336363,114.386996,114.580501
73,119.260325,131.104032,115.341351,113.311794,113.458503,113.953669,114.813791,114.077786,114.077877,114.078045,114.082752,114.202414,114.446220,114.446175,114.446142,114.446076,114.444085,114.494374,114.685640
74,119.378473,131.360162,115.533463,113.398994,113.552491,114.070109,115.001870,114.191959,114.192053,114.192217,114.196861,114.314430,114.552542,114.552516,114.552486,114.552414,114.550579,114.600500,114.789615
75,119.495053,131.614553,115.702275,113.483409,113.643869,114.184770,115.190283,114.304690,114.304780,114.304950,114.309515,114.425026,114.657692,114.657646,114.657672,114.657578,114.655882,114.705400,114.892626
76,119.610072,131.867285,115.861708,113.565118,113.732751,114.297730,115.378940,114.416013,114.416097,114.416262,114.420761,114.534235,114.761686,114.761694,114.761631,114.761580,114.760036,114.809086,114.993994
77,119.723620,132.118692,116.008094,113.644133,113.819143,114.408860,115.568959,114.525950,114.526043,114.526208,114.530623,114.642020,114.864561,114.864520,114.864485,114.864438,114.863006,114.911601,115.094459
78,119.835646,132.368691,116.133433,113.720493,113.903093,114.518390,115.759133,114.634544,114.634631,114.634805,114.639147,114.748608,114.966267,114.966252,114.966258,114.966175,114.964883,115.012973,115.193735
79,119.946343,132.617950,116.248791,113.796289,113.984493,114.626272,115.949303,114.741829,114.741913,114.742083,114.746349,114.853885,115.066903,115.066894,115.066889,115.066827,115.065618,115.113217,115.291956
80,120.055515,132.865940,116.347533,113.881152,114.063481,114.732478,116.139446,114.847829,114.847915,114.848088,114.852275,114.957859,115.166479,115.166466,115.166446,115.166409,115.165334,115.213131,115.389088
81,120.163429,133.113584,116.431658,113.975466,114.140075,114.837086,116.329460,114.952574,114.952665,114.952828,114.956937,115.060643,115.265007,115.264992,115.264992,115.264936,115.263944,115.312132,115.485151
82,120.269960,133.360577,116.506294,114.078415,114.214281,114.940128,116.519290,115.056108,115.056196,115.056357,115.060388,115.162166,115.362478,115.362463,115.362443,115.362425,115.361535,115.410056,115.580251
83,120.375235,133.607432,116.564949,114.189102,114.286090,115.041600,116.708885,115.158434,115.158524,115.158689,115.162637,115.262591,115.458934,115.458942,115.458928,115.458916,115.458091,115.506912,115.674250
84,120.479237,133.855882,116.629611,114.306914,114.355558,115.141554,116.895441,115.259602,115.259687,115.259852,115.263725,115.361771,115.554454,115.554417,115.554410,115.554319,115.553642,115.602740,115.767322
85,120.582019,134.115640,116.761864,114.431168,114.422647,115.239978,117.080182,115.359624,115.359706,115.359868,115.363674,115.459888,115.648935,115.648930,115.648925,115.648898,115.648265,115.697554,115.859410
86,120.683594,134.372809,116.886361,114.561311,114.487478,115.336922,117.264502,115.458522,115.458616,115.458781,115.462496,115.556915,115.742485,115.742478,115.742477,115.742458,115.741839,115.791373,115.950573
87,120.783993,134.627440,117.008918,114.723981,114.549985,115.432386,117.448340,115.556334,115.556421,115.556579,115.560208,115.652802,115.835100,115.835122,115.835097,115.835088,115.834539,115.884213,116.040764
88,120.883237,134.879557,117.126481,114.931662,114.610193,115.526437,117.631672,115.653075,115.653157,115.653317,115.656865,115.747697,115.926781,115.926829,115.926779,115.926785,115.926291,115.976091,116.130083
89,120.981380,135.129302,117.239406,115.150499,114.668081,115.618963,117.814502,115.748764,115.748859,115.749014,115.752482,115.841541,116.017608,116.017596,116.017646,116.017558,116.017128,116.067052,116.218497
90,121.078417,135.376607,117.347342,115.401082,114.723899,115.710116,117.996669,115.843439,115.843528,115.843683,115.847075,115.934377,116.107465,116.107475,116.107473,116.107471,116.107108,116.157100,116.306015
91,121.174381,135.621545,117.450170,115.658884,114.790075,115.799872,118.171241,115.937097,115.937189,115.937351,115.940642,116.026222,116.196484,116.196518,116.196501,116.196515,116.196163,116.246238,116.392703
92,121.269295,135.864154,117.549626,115.920814,114.891065,115.888236,118.344358,116.030198,116.030709,116.031670,116.033248,116.117100,116.284660,116.284679,116.284668,116.284683,116.284379,116.334510,116.478527
93,121.363187,136.104494,117.646497,116.185647,114.991545,115.975173,118.516643,116.121933,116.122444,116.123455,116.124883,116.207046,116.372000,116.371967,116.372009,116.372006,116.371757,116.421894,116.563544
