15500MHz / Lb(0.10) dB
,h2(m),1000,1000,1000,1000,1000,10000,10000,10000,10000,10000,10000,20000,20000,20000,20000,20000,20000,20000
,h1(m),1.5,15,30,60,1000,1.5,15,30,60,1000,10000,1.5,15,30,60,1000,10000,20000
D (km),FSL
0,116.243595,112.901325,112.782462,112.648476,112.374205,-0.000000,132.962386,132.950024,132.936269,132.908701,132.002191,-0.000000,138.983638,138.977146,138.969928,138.955477,138.492412,132.868015,-0.000000
1,119.260693,115.644664,115.613375,115.578388,115.508194,114.387235,133.001132,132.994788,132.987721,132.973529,132.484346,115.948914,138.993534,138.990024,138.986118,138.978293,138.723037,134.885479,116.058608
2,123.243977,119.426140,119.416585,119.405658,119.384936,119.404482,133.113227,133.107099,133.100275,133.086587,132.617376,121.816099,139.022078,139.018601,139.014734,139.006981,138.754259,134.997416,121.982393
3,126.255864,122.321792,122.321101,122.320481,122.319457,122.442921,133.293365,133.287553,133.281103,133.268132,132.828556,125.122120,139.069155,139.065733,139.061921,139.054281,138.805296,135.172501,125.432579
4,128.560948,124.578644,124.579197,124.580020,124.581772,124.755191,133.532897,133.527475,133.521471,133.509391,133.103207,127.425426,139.134109,139.130742,139.127006,139.119505,138.875348,135.403761,127.848170
5,130.406360,126.410821,126.411975,126.413202,126.415912,126.604919,133.821722,133.816724,133.811193,133.800062,133.429289,129.164697,139.216056,139.212770,139.209115,139.201782,138.963363,135.680864,129.667774
6,131.938920,127.949015,127.950165,127.951520,127.954391,128.140926,134.153323,134.147774,134.141598,134.129687,133.794094,130.557708,139.313961,139.310762,139.307193,139.300063,139.068115,135.993287,131.153299
7,133.246678,129.273622,129.274841,129.276267,129.279177,129.442551,134.519723,134.514657,134.509011,134.497740,134.186013,131.720472,139.426667,139.423559,139.420099,139.413162,139.188250,136.331214,132.397839
8,134.386166,130.437132,130.438319,130.439775,130.442522,130.587431,134.906652,134.902029,134.896890,134.886620,134.595212,132.705130,139.552911,139.549900,139.546552,139.539837,139.322334,136.686283,133.454238
9,135.395241,131.475084,131.476283,131.477580,131.480230,131.610005,135.306583,135.302341,135.297667,135.288276,135.013905,133.570457,139.691426,139.688511,139.685269,139.678790,139.468879,137.043682,134.375143
10,136.300377,132.412567,132.413659,132.414874,132.417459,132.534729,135.713394,135.709532,135.705270,135.696661,135.436088,134.328988,139.840889,139.838078,139.834947,139.828696,139.626437,137.402388,135.190869
11,137.120785,133.267797,133.269276,133.270962,133.274164,133.379346,136.122376,136.118806,136.114880,136.107031,135.857260,135.018120,140.000190,139.997332,139.994311,139.988272,139.793588,137.761667,135.923423
12,137.870849,134.054571,134.056134,134.057811,134.061086,134.157139,136.529880,136.526600,136.522949,136.515708,136.285895,135.638186,140.172602,140.169489,140.166023,140.159075,139.968979,138.118514,136.580635
13,138.561721,134.783615,134.785194,134.786931,134.790238,134.878364,136.933183,136.930171,136.926807,136.920108,136.707140,136.206024,140.352367,140.349367,140.346031,140.339332,140.151330,138.470743,137.185584
14,139.201866,135.463070,135.464792,135.466542,135.469934,135.551126,137.330436,137.327634,137.324496,137.318188,137.119459,136.734790,140.538343,140.535440,140.532217,140.525755,140.339468,138.810520,137.739465
15,139.798312,136.099741,136.101503,136.103341,136.106864,136.181845,137.720344,137.717643,137.714670,137.708703,137.521805,137.228912,140.729425,140.726628,140.723510,140.717290,140.532330,139.139820,138.247013
16,140.356579,136.698971,136.700804,136.702763,136.706321,136.775851,138.101726,138.099312,138.096392,138.090812,137.913650,137.684397,140.924663,140.921955,140.918954,140.912937,140.728911,139.461760,138.722429
17,140.881207,137.265161,137.267136,137.269163,137.272899,137.337450,138.474243,138.471897,138.469277,138.463805,138.294769,138.115089,141.123141,141.120536,141.117632,141.111827,140.928357,139.776081,139.169670
18,141.376071,137.802081,137.804157,137.806293,137.810220,137.870180,138.837660,138.835381,138.832825,138.827764,138.665032,138.523807,141.324086,141.321569,141.318760,141.313148,141.134707,140.082599,139.583043
19,141.844363,138.312836,138.314998,138.317272,138.321384,138.377165,139.191748,139.189527,139.187059,139.182097,139.024725,138.912850,141.526777,141.524339,141.521615,141.516189,141.343492,140.381323,139.971090
20,142.288697,138.799954,138.802398,138.804681,138.809007,138.875090,139.536609,139.534348,139.532217,139.527205,139.373813,139.284257,141.730588,141.728219,141.725582,141.720306,141.552886,140.668305,140.340005
21,142.711466,139.265768,139.268314,139.270865,139.275380,139.339300,139.866854,139.865368,139.863563,139.859900,139.712783,139.637148,141.934977,141.932663,141.930098,141.924968,141.762363,140.945369,140.691670
22,143.114680,139.712226,139.714946,139.717638,139.722415,139.784468,140.188431,140.186798,140.184973,140.181366,140.041915,139.974345,142.139422,142.137170,142.134685,142.129692,141.971463,141.215384,141.027669
23,143.500064,140.140985,140.143870,140.146701,140.151722,140.212316,140.501449,140.499838,140.498042,140.494410,140.361524,140.298513,142.343529,142.341350,142.338908,142.334049,142.179792,141.478575,141.342740
24,143.869016,140.553349,140.556541,140.559539,140.564798,140.624277,140.806313,140.804710,140.802903,140.799306,140.672099,140.610730,142.546929,142.544789,142.542426,142.537677,142.386994,141.735184,141.642784
25,144.223009,140.950705,140.954122,140.957333,140.962811,141.021607,141.103328,141.101710,141.099900,141.096281,140.973851,140.911850,142.749352,142.747239,142.744919,142.740287,142.592801,141.985474,141.931356
26,144.563150,141.334003,141.337724,141.341092,141.346736,141.405465,141.392729,141.391108,141.389279,141.385631,141.264647,141.202741,142.950442,142.948372,142.946115,142.941547,142.796922,142.229661,142.209430
27,144.890515,141.703079,141.707109,141.710657,141.716354,141.775767,141.674804,141.673156,141.671301,141.667628,141.545020,141.484136,143.150050,143.148047,143.145812,143.141349,142.999216,142.467963,142.477797
28,145.205980,142.056053,142.060483,142.064146,142.069912,142.130845,141.949806,141.948145,141.946275,141.942576,141.818081,141.756662,143.347989,143.345988,143.343829,143.339394,143.199524,142.700238,142.737173
29,145.510405,142.395105,142.400116,142.403987,142.410054,142.473494,142.218040,142.216346,142.214474,142.210714,142.084070,142.020831,143.544084,143.542138,143.539858,143.535598,143.397623,142.924932,142.988218
30,145.804517,142.721307,142.727273,142.731680,142.738725,142.804998,142.479774,142.478057,142.476150,142.472305,142.343363,142.277247,143.738198,143.736270,143.734182,143.729826,143.593500,143.144554,143.226979
31,146.089027,143.036032,143.043570,143.048899,143.057342,143.126612,142.735290,142.733530,142.731565,142.727678,142.596195,142.533256,143.930315,143.928403,143.926245,143.921873,143.787048,143.359341,143.457657
32,146.364518,143.340375,143.349880,143.356365,143.366398,143.438536,142.984751,142.982959,142.980966,142.977029,142.842846,142.782563,144.120134,144.118232,144.116127,144.111943,143.978282,143.569441,143.681771
33,146.631557,143.638334,143.648047,143.655081,143.666646,143.741625,143.228457,143.226662,143.224638,143.220623,143.083618,143.024919,144.307797,144.305979,144.303859,144.299675,144.166928,143.775042,143.899763
34,146.890616,143.929655,143.941391,143.948265,143.958852,144.036690,143.466693,143.464834,143.462792,143.458669,143.318700,143.260450,144.493260,144.491361,144.489296,144.485262,144.353129,143.976354,144.111961
35,147.142184,144.213663,144.227405,144.235338,144.246201,144.324601,143.699577,143.697704,143.695638,143.691431,143.548409,143.490134,144.676383,144.674604,144.672517,144.668437,144.536928,144.173487,144.318700
36,147.386675,144.489858,144.505589,144.514577,144.526715,144.604354,143.927401,143.925486,143.923350,143.919085,143.772894,143.713669,144.857220,144.855404,144.853407,144.849275,144.718128,144.366679,144.520316
37,147.624484,144.759723,144.777510,144.787553,144.800971,144.878406,144.150334,144.148388,144.146192,144.141856,143.992402,143.931816,145.035744,145.033967,145.031818,145.027710,144.897047,144.555959,144.717045
38,147.855958,145.023291,145.043152,145.054293,145.069011,145.146781,144.368585,144.366599,144.364400,144.359931,144.207127,144.144440,145.211977,145.210157,145.208059,145.203972,145.073266,144.741568,144.909178
39,148.081407,145.280115,145.302177,145.314433,145.330514,145.408577,144.582337,144.580276,144.578021,144.573486,144.417290,144.352212,145.384991,145.383418,145.381648,145.377853,145.247092,144.923605,145.096920
40,148.301186,145.530487,145.554798,145.568209,145.585700,145.664083,144.791723,144.789644,144.787344,144.782700,144.623043,144.555146,145.553620,145.552034,145.550243,145.546713,145.418453,145.102186,145.279766
41,148.515544,145.774884,145.801579,145.816234,145.835124,145.915481,144.996970,144.994837,144.992481,144.987774,144.824568,144.753478,145.720028,145.718430,145.716711,145.713119,145.587368,145.277451,145.457344
42,148.724736,146.014992,146.044193,146.060104,146.080597,146.165469,145.198174,145.196020,145.193620,145.188780,145.021999,144.947560,145.884334,145.882724,145.880913,145.877351,145.753950,145.449543,145.631237
43,148.929000,146.249462,146.281326,146.298572,146.320652,146.410364,145.395529,145.393343,145.390859,145.385980,145.215535,145.137140,146.046471,146.044850,146.043067,146.039489,145.918203,145.622377,145.801608
44,149.128577,146.478500,146.513169,146.531819,146.555629,146.650388,145.589186,145.586950,145.584444,145.579422,145.405316,145.322873,146.206479,146.204873,146.203034,146.199383,146.080110,145.793525,145.968589
45,149.323675,146.702281,146.739898,146.760033,146.785562,146.885710,145.779261,145.776985,145.774415,145.769350,145.591476,145.504685,146.364427,146.362735,146.360941,146.357293,146.238113,145.961197,146.132377
46,149.514488,146.920966,146.961701,146.983373,147.010758,147.116543,145.965885,145.963553,145.960983,145.955712,145.774138,145.682912,146.520287,146.518625,146.516775,146.513067,146.392668,146.125945,146.292992
47,149.701247,147.134764,147.178717,147.202019,147.231348,147.343060,146.149175,146.146796,146.144143,146.138802,145.953449,145.857537,146.674130,146.672448,146.670542,146.666831,146.545174,146.287981,146.450669
48,149.883990,147.343655,147.391096,147.416131,147.447479,147.565439,146.329267,146.326836,146.324136,146.318692,146.129519,146.028797,146.825978,146.824264,146.822371,146.818591,146.695604,146.447179,146.605489
49,150.063004,147.549148,147.600246,147.627093,147.660593,147.785164,146.506251,146.503775,146.500996,146.495482,146.302432,146.196707,146.975832,146.974114,146.972207,146.968375,146.844005,146.603755,146.757605
50,150.238417,147.750529,147.805462,147.834208,147.869957,148.001554,146.680240,146.677714,146.674908,146.669242,146.472353,146.361500,147.123767,147.122033,147.120101,147.116233,146.990413,146.757493,146.906990
51,150.410355,147.947568,148.006536,148.037298,148.075437,148.214320,146.851351,146.848783,146.845900,146.840143,146.639345,146.523233,147.269802,147.268050,147.266096,147.262193,147.134886,146.908800,147.053885
52,150.578967,148.140393,148.203604,148.236434,148.277004,148.423651,147.019650,147.017033,147.014111,147.008236,146.803547,146.682061,147.413969,147.412196,147.410218,147.406279,147.277443,147.057646,147.198334
53,150.744347,148.329061,148.396707,148.431823,148.474929,148.629687,147.185258,147.182583,147.179616,147.173624,146.964971,146.838047,147.556299,147.554514,147.552519,147.548521,147.418119,147.204190,147.340382
54,150.906648,148.513707,148.585998,148.623357,148.669190,148.832404,147.348243,147.345534,147.342493,147.336403,147.123784,146.991302,147.696842,147.695032,147.693023,147.688967,147.556956,147.348595,147.480141
55,151.065995,148.694435,148.771601,148.811343,148.860021,149.032061,147.508701,147.505938,147.502854,147.496650,147.280050,147.141930,147.835620,147.833794,147.831751,147.827656,147.694001,147.490244,147.617970
56,151.222406,148.871213,148.953505,148.995789,149.047386,149.228728,147.666722,147.663912,147.660762,147.654442,147.433850,147.288519,147.972686,147.970830,147.968761,147.964623,147.829272,147.630001,147.753075
57,151.376160,149.044343,149.131854,149.176781,149.231458,149.422462,147.822350,147.819499,147.816305,147.809868,147.585253,147.431303,148.108040,148.106164,148.104079,148.099885,147.962817,147.767603,147.886487
58,151.527125,149.213609,149.306774,149.354399,149.412276,149.613391,147.975689,147.972788,147.969533,147.962985,147.734343,147.571805,148.241746,148.239834,148.237728,148.233491,148.094679,147.903164,148.017715
59,151.675562,149.379292,149.478223,149.528724,149.589851,149.801597,148.126812,148.123850,148.120559,148.113880,147.881187,147.710107,148.373814,148.371893,148.369758,148.365464,148.224870,148.036814,148.150359
60,151.821517,149.541408,149.646424,149.699852,149.764414,149.987165,148.275756,148.272740,148.269377,148.262623,148.025868,147.846264,148.504297,148.502353,148.500183,148.495844,148.353447,148.168476,148.281851
61,151.965048,149.700136,149.811351,149.867906,149.936219,150.170373,148.422604,148.419547,148.416127,148.409243,148.168417,147.980349,148.633210,148.631243,148.629057,148.624660,148.480432,148.298230,148.411353
62,152.106238,149.855542,149.973258,150.033056,150.105030,150.351201,148.567415,148.564307,148.560836,148.553843,148.308943,148.112409,148.760612,148.758625,148.756398,148.751938,148.605889,148.426193,148.538731
63,152.245177,150.007553,150.132053,150.195161,150.270971,150.529661,148.710263,148.707100,148.703576,148.696460,148.447453,148.242529,148.886502,148.884477,148.882283,148.877728,148.729774,148.552342,148.664324
64,152.381929,150.156215,150.287717,150.354310,150.434170,150.705786,148.851178,148.847974,148.844385,148.837177,148.584044,148.370735,149.010922,149.008880,149.006632,149.002046,148.852194,148.676771,148.788230
65,152.516623,150.301656,150.440331,150.510558,150.594591,150.879627,148.990235,148.986977,148.983328,148.975994,148.718759,148.497101,149.133914,149.131848,149.129564,149.124917,148.973146,148.799506,148.910446
66,152.649149,150.443694,150.589946,150.663846,150.752184,151.051255,149.127482,149.124167,149.120464,149.113015,148.851649,148.621673,149.255494,149.253404,149.251106,149.246390,149.092685,148.920599,149.030875
67,152.779730,150.582588,150.736678,150.814339,150.907132,151.220730,149.262969,149.259605,149.255844,149.248269,148.982756,148.744492,149.375701,149.373600,149.371212,149.366488,149.210804,149.040066,149.149845
68,152.908428,150.718385,150.880362,150.962094,151.059440,151.388120,149.396733,149.393321,149.389505,149.381820,149.112150,148.865625,149.494544,149.492393,149.490014,149.485220,149.327574,149.158013,149.267028
69,153.035165,150.850949,151.021221,151.107069,151.209168,151.553448,149.528829,149.525363,149.521497,149.513694,149.239855,148.985084,149.612090,149.609871,149.607483,149.602641,149.443002,149.274406,149.382657
70,153.160115,150.980483,151.159235,151.249297,151.356318,151.716776,149.659310,149.655795,149.651865,149.643954,149.365936,149.102949,149.728309,149.726105,149.723658,149.718743,149.557095,149.389314,149.496829
71,153.283291,151.106975,151.294509,151.388943,151.501002,151.878152,149.788216,149.784637,149.780647,149.772618,149.490430,149.219252,149.843283,149.841053,149.838591,149.833583,149.669909,149.502783,149.609648
72,153.404745,151.230468,151.427064,151.525889,151.643096,152.037669,149.915564,149.911956,149.907901,149.899754,149.613365,149.334054,149.956982,149.954729,149.952223,149.947189,149.781465,149.614832,149.720872
73,153.524534,151.351014,151.556736,151.660267,151.782849,152.195261,150.041428,150.037764,150.033660,150.025394,149.734809,149.447323,150.069489,150.067194,150.064656,150.059567,149.891791,149.725497,149.830700
74,153.642682,151.468621,151.683867,151.792121,151.920203,152.351051,150.165825,150.162110,150.157950,150.149565,149.854774,149.559159,150.180778,150.178472,150.175903,150.170742,150.000899,149.834819,149.939237
75,153.759262,151.583368,151.808311,151.921398,152.055098,152.505071,150.288801,150.285038,150.280818,150.272322,149.973303,149.669582,150.290909,150.288551,150.286009,150.280757,150.108825,149.942826,150.046690
76,153.874281,151.695246,151.930136,152.048205,152.187685,152.657418,150.410402,150.406584,150.402299,150.393681,150.090440,149.778626,150.399896,150.397566,150.394896,150.389622,150.215612,150.049534,150.152373
77,153.987804,151.830370,152.049397,152.172553,152.317971,152.807912,150.530635,150.526768,150.522435,150.513701,150.206211,149.886253,150.507779,150.505367,150.502694,150.497357,150.321224,150.154989,150.257042
78,154.099881,152.019488,152.164130,152.292459,152.443873,152.954458,150.649559,150.645635,150.641237,150.632395,150.320662,149.992691,150.614503,150.612088,150.609424,150.603983,150.425752,150.259223,150.360413
79,154.210476,152.206933,152.276095,152.409700,152.567129,153.099068,150.767195,150.763217,150.758759,150.749795,150.433809,150.097824,150.720172,150.717733,150.715024,150.709537,150.529146,150.362253,150.462623
80,154.319738,152.393054,152.385582,152.524524,152.688123,153.241938,150.883568,150.879541,150.875025,150.865949,150.545698,150.201661,150.824793,150.822320,150.819561,150.814033,150.631530,150.462488,150.563642
81,154.427617,152.577750,152.492631,152.636983,152.806884,153.383167,150.998707,150.994634,150.990066,150.980861,150.656339,150.304316,150.928379,150.925874,150.923102,150.917487,150.732817,150.561230,150.663494
82,154.534141,152.761033,152.597125,152.747104,152.923417,153.522795,151.112670,151.108543,151.103914,151.094589,150.765790,150.405715,151.030920,151.028384,151.025558,151.019915,150.833094,150.658901,150.762286
83,154.639479,152.943104,152.755611,152.854822,153.037741,153.660818,151.225446,151.221270,151.216584,151.207146,150.874057,150.506024,151.132457,151.129915,151.127062,151.121357,150.932344,150.755510,150.859886
84,154.743449,153.123682,152.934467,152.960325,153.149852,153.797301,151.337089,151.332866,151.328116,151.318561,150.981180,150.605093,151.233074,151.230454,151.227574,151.221718,151.030597,150.851099,150.956471
85,154.846234,153.302991,153.112127,153.063474,153.259836,153.932231,151.447608,151.443341,151.438530,151.428854,151.087185,150.703106,151.332661,151.330044,151.327133,151.321276,151.127932,150.945677,151.051987
86,154.947822,153.480987,153.288468,153.190056,153.367658,154.065674,151.557050,151.552719,151.547862,151.538072,151.192079,150.800035,151.431330,151.428681,151.425740,151.419824,151.224223,151.039268,151.146497
87,155.048324,153.657795,153.463649,153.364195,153.473402,154.197629,151.665418,151.661039,151.656115,151.646199,151.295882,150.895831,151.529076,151.526427,151.523426,151.517453,151.319651,151.131885,151.239953
88,155.147451,153.832980,153.637669,153.537361,153.577070,154.328186,151.772737,151.768315,151.763327,151.753294,151.398650,150.990640,151.625900,151.623248,151.620187,151.614161,151.414138,151.223545,151.332462
89,155.245658,154.007152,153.810525,153.709264,153.678667,154.457199,151.879069,151.874565,151.869533,151.859376,151.500398,151.084405,151.721884,151.719139,151.716149,151.709956,151.507718,151.314293,151.423992
90,155.342678,154.179907,153.982220,153.880076,153.778202,154.584872,151.984362,151.979830,151.974733,151.964458,151.601142,151.177166,151.816906,151.814153,151.811074,151.804904,151.600451,151.404133,151.514553
91,155.438608,154.351351,154.152814,154.049920,153.916374,154.711175,152.088693,152.084105,152.078952,152.068565,151.700877,151.268944,151.911104,151.908345,151.905217,151.898994,151.692264,151.493069,151.604215
92,155.533466,154.515260,154.315672,154.211668,154.076175,154.827655,152.192135,152.187867,152.183089,152.173411,151.799673,151.359759,152.004471,152.001666,151.998510,151.992219,151.783247,151.581142,151.692946
