1200MHz / Lb(0.05) dB
,h2(m),1000,1000,1000,1000,1000,10000,10000,10000,10000,10000,10000,20000,20000,20000,20000,20000,20000,20000
,h1(m),1.5,15,30,60,1000,1.5,15,30,60,1000,10000,1.5,15,30,60,1000,10000,20000
D (km),FSL
0,-94.020586,-89.869243,-89.750945,-89.617587,-89.344573,0.000000,-109.891174,-109.879377,-109.866251,-109.839939,-108.972802,0.000000,-115.912425,-115.906498,-115.899909,-115.886715,-115.463024,-109.877757,0.000000
1,-97.037684,-92.498724,-92.481035,-92.461111,-92.420864,-91.647757,-109.928576,-109.923899,-109.918685,-109.908198,-109.535196,-93.637664,-115.922014,-115.919622,-115.916961,-115.911623,-115.734323,-112.300054,-93.773600
2,-101.020968,-96.131535,-96.128794,-96.125433,-96.119738,-96.409631,-110.036338,-110.031862,-110.026874,-110.016857,-109.662780,-99.463518,-115.949448,-115.947091,-115.944467,-115.939202,-115.764458,-112.408320,-99.671012
3,-104.032855,-98.985973,-98.985077,-98.984227,-98.982739,-99.306859,-110.209519,-110.205334,-110.200690,-110.191334,-109.865173,-102.713354,-115.994682,-115.992379,-115.989809,-115.984656,-115.813619,-112.576662,-103.101564
4,-106.337939,-101.205762,-101.206191,-101.206872,-101.208338,-101.478093,-110.439855,-110.436027,-110.431792,-110.423252,-110.128215,-104.964059,-116.057078,-116.054829,-116.052334,-116.047317,-115.881029,-112.798820,-105.494999
5,-108.183351,-102.999070,-103.000137,-103.001270,-103.003784,-103.221742,-110.717711,-110.714269,-110.710465,-110.702792,-110.440649,-106.656245,-116.135785,-116.133614,-116.131198,-116.126345,-115.965679,-113.064890,-107.283751
6,-109.715911,-104.497427,-104.498518,-104.499804,-104.502535,-104.682016,-111.033520,-111.030392,-111.026906,-111.019977,-110.790498,-108.005078,-116.229808,-116.227722,-116.225390,-116.220734,-116.066396,-113.364800,-108.743730
7,-111.023669,-105.781633,-105.782806,-105.784178,-105.786980,-105.944631,-111.378111,-111.375368,-111.372304,-111.366195,-111.166770,-109.126550,-116.338042,-116.336044,-116.333818,-116.329349,-116.181888,-113.689168,-109.963208
8,-112.163157,-106.904380,-106.905530,-106.906941,-106.909604,-107.049735,-111.742680,-111.740287,-111.737624,-111.732307,-111.560122,-110.071503,-116.459281,-116.457378,-116.455260,-116.451006,-116.310792,-114.030012,-110.991358
9,-113.172232,-107.901323,-107.902489,-107.903753,-107.906334,-108.032037,-112.120190,-112.118091,-112.115797,-112.111167,-111.963124,-110.901482,-116.592319,-116.590509,-116.588493,-116.584468,-116.451696,-114.371616,-111.887263
10,-114.077368,-108.797624,-108.798689,-108.799877,-108.802402,-108.916144,-112.504863,-112.503065,-112.501095,-112.497076,-112.370010,-111.626142,-116.735895,-116.734185,-116.732279,-116.728476,-116.603226,-114.713907,-112.680594
11,-114.897776,-109.611549,-109.612990,-109.614633,-109.617759,-109.719898,-112.892213,-112.890640,-112.888930,-112.885516,-112.776426,-112.285259,-116.888825,-116.887201,-116.885402,-116.881806,-116.764037,-115.056891,-113.391368
12,-115.647840,-110.356927,-110.358448,-110.360084,-110.363280,-110.456649,-113.278726,-113.277383,-113.275885,-113.272949,-113.180279,-112.877019,-117.050322,-117.048764,-117.047025,-117.043533,-116.932847,-115.397727,-114.025334
13,-116.338712,-111.044498,-111.046035,-111.047728,-111.050956,-111.136696,-113.661750,-113.660622,-113.659355,-113.656852,-113.578104,-113.418736,-117.218856,-117.217394,-117.215767,-117.212488,-117.108440,-115.734349,-114.609005
14,-116.978857,-111.682430,-111.684101,-111.685807,-111.689117,-111.768174,-114.039450,-114.038491,-114.037407,-114.035205,-113.968391,-113.923927,-117.393377,-117.391996,-117.390465,-117.387388,-117.289702,-116.058182,-115.142083
15,-117.575303,-112.277531,-112.279240,-112.281030,-112.284463,-112.357531,-114.410525,-114.409639,-114.408682,-114.406752,-114.350035,-114.396587,-117.572863,-117.571573,-117.570132,-117.567262,-117.475624,-116.371637,-115.628854
16,-118.133569,-112.835157,-112.836931,-112.838836,-112.842305,-112.910105,-114.773775,-114.773146,-114.772218,-114.770619,-114.722425,-114.831585,-117.756436,-117.755222,-117.753881,-117.751185,-117.665242,-116.678350,-116.084974
17,-118.658198,-113.359720,-113.361625,-113.363594,-113.367232,-113.430217,-115.128816,-115.128241,-115.127589,-115.126059,-115.085240,-115.243580,-117.943242,-117.942118,-117.940860,-117.938348,-117.857742,-116.978074,-116.514231
18,-119.153062,-113.854989,-113.856988,-113.859060,-113.862878,-113.921420,-115.475377,-115.474854,-115.474253,-115.473110,-115.438262,-115.635184,-118.132558,-118.131510,-118.130334,-118.127991,-118.052811,-117.270630,-116.909401
19,-119.621354,-114.324075,-114.326154,-114.328356,-114.332350,-114.386838,-115.813177,-115.812707,-115.812187,-115.811129,-115.781683,-116.008522,-118.323704,-118.322726,-118.321625,-118.319445,-118.249455,-117.556020,-117.279807
20,-120.065688,-114.769522,-114.771858,-114.774071,-114.778269,-114.842680,-116.142278,-116.141769,-116.141577,-116.140472,-116.115382,-116.365480,-118.516087,-118.515170,-118.514147,-118.512100,-118.446942,-117.829868,-117.632148
21,-120.488456,-115.193659,-115.196088,-115.198550,-115.202928,-115.265219,-116.464812,-116.464396,-116.463788,-116.462529,-116.439763,-116.704946,-118.709191,-118.708323,-118.707365,-118.705449,-118.644770,-118.094151,-117.968210
22,-120.891671,-115.598439,-115.601026,-115.603619,-115.608245,-115.668694,-116.779295,-116.778781,-116.778204,-116.777101,-116.755035,-117.029683,-118.902517,-118.901705,-118.900820,-118.899030,-118.842500,-118.351993,-118.289496
23,-121.277009,-115.985480,-115.988261,-115.990986,-115.995844,-116.054823,-117.085116,-117.084669,-117.084171,-117.083144,-117.061444,-117.342314,-119.095681,-119.094937,-119.094093,-119.092428,-119.039749,-118.603595,-118.589800
24,-121.646009,-116.369449,-116.359256,-116.362138,-116.367224,-116.425046,-117.382685,-117.382292,-117.381833,-117.380942,-117.359417,-117.643825,-119.288325,-119.287620,-119.286849,-119.285291,-119.236169,-118.849173,-118.875561
25,-122.000018,-116.776810,-116.715195,-116.718273,-116.723570,-116.780620,-117.672316,-117.671953,-117.671542,-117.670732,-117.649113,-117.934994,-119.480184,-119.479505,-119.478778,-119.477335,-119.431493,-119.088964,-119.150604
26,-122.340145,-117.201661,-117.057198,-117.060420,-117.065879,-117.122705,-117.954254,-117.953933,-117.953553,-117.952815,-117.932062,-118.216619,-119.670908,-119.670270,-119.669608,-119.668232,-119.625431,-119.323157,-119.415844
27,-122.667493,-117.638761,-117.386068,-117.389453,-117.394967,-117.452255,-118.228790,-118.228488,-118.228133,-118.227471,-118.208697,-118.489368,-119.860346,-119.859778,-119.859140,-119.857872,-119.817839,-119.551948,-119.672023
28,-122.982971,-118.083964,-117.702442,-117.705934,-117.711516,-117.770218,-118.496185,-118.495915,-118.495596,-118.495011,-118.477958,-118.753817,-120.048310,-120.047749,-120.047189,-120.045956,-120.008549,-119.775148,-119.919814
29,-123.287396,-118.540217,-118.006802,-118.010470,-118.016311,-118.077399,-118.756748,-118.756491,-118.756221,-118.755678,-118.740093,-119.010427,-120.234624,-120.234121,-120.233446,-120.232398,-120.197336,-119.991116,-120.159834
30,-123.581508,-119.012750,-118.299683,-118.303814,-118.310526,-118.374453,-119.010753,-119.010520,-119.010265,-119.009740,-118.995480,-119.259758,-120.419145,-120.418665,-120.418187,-120.417057,-120.384174,-120.202426,-120.387636
31,-123.866018,-119.487343,-118.582205,-118.587152,-118.595145,-118.662126,-119.258485,-119.258254,-119.257994,-119.257529,-119.244359,-119.502759,-120.601849,-120.601393,-120.600855,-120.599725,-120.568949,-120.409291,-120.607762
32,-124.141516,-119.963662,-118.855470,-118.861470,-118.870951,-118.940954,-119.500113,-119.499896,-119.499659,-119.499247,-119.487013,-119.739440,-120.782439,-120.782002,-120.781522,-120.780597,-120.751663,-120.611839,-120.821812
33,-124.408535,-120.443064,-119.120362,-119.127490,-119.138435,-119.211466,-119.735937,-119.735764,-119.735547,-119.735160,-119.723747,-119.969911,-120.961042,-120.960698,-120.960215,-120.959309,-120.932040,-120.810238,-121.030195
34,-124.667611,-120.921893,-119.377410,-119.385642,-119.398032,-119.474176,-119.966246,-119.966056,-119.965871,-119.965481,-119.954753,-120.194246,-121.137615,-121.137196,-121.136779,-121.136044,-121.110202,-121.004677,-121.233212
35,-124.919181,-121.393404,-119.627008,-119.636335,-119.650131,-119.729518,-120.191163,-120.191003,-120.190847,-120.190476,-120.180350,-120.413359,-121.312005,-121.311716,-121.311290,-121.310533,-121.286192,-121.195249,-121.431174
36,-125.163666,-121.856184,-119.869455,-119.879892,-119.895110,-119.977902,-120.410979,-120.410824,-120.410650,-120.410325,-120.400689,-120.626911,-121.484264,-121.483951,-121.483625,-121.482843,-121.459798,-121.382174,-121.624394
37,-125.401475,-122.314744,-120.105108,-120.116665,-120.133329,-120.219713,-120.625867,-120.625727,-120.625545,-120.625252,-120.616021,-120.835608,-121.654356,-121.654093,-121.653632,-121.652902,-121.631325,-121.565466,-121.813086
38,-125.632949,-122.747624,-120.334184,-120.346910,-120.365051,-120.455283,-120.836037,-120.835903,-120.835768,-120.835448,-120.826540,-121.039286,-121.822298,-121.822006,-121.821610,-121.820930,-121.800353,-121.745350,-121.997519
39,-125.858398,-123.173295,-120.557018,-120.570945,-120.590641,-120.684944,-121.041672,-121.041512,-121.041373,-121.041090,-121.032468,-121.238573,-121.988372,-121.987972,-121.987508,-121.986716,-121.967172,-121.921911,-122.177882
40,-126.078177,-123.577551,-120.773839,-120.789019,-120.810338,-120.909005,-121.242911,-121.242778,-121.242646,-121.242360,-121.233960,-121.433451,-122.153339,-122.152952,-122.152496,-122.151640,-122.131708,-122.095249,-122.353623
41,-126.292535,-123.961386,-120.984919,-121.001448,-121.024406,-121.127657,-121.439978,-121.439838,-121.439703,-121.439457,-121.431198,-121.624131,-122.316051,-122.315677,-122.315320,-122.314461,-122.293965,-122.265495,-122.524331
42,-126.501727,-124.331533,-121.190445,-121.208341,-121.233123,-121.341230,-121.632974,-121.632859,-121.632731,-121.632458,-121.624318,-121.810928,-122.476626,-122.476267,-122.475848,-122.475076,-122.454050,-122.432776,-122.691628
43,-126.705987,-124.668268,-121.390652,-121.410003,-121.436623,-121.549950,-121.822090,-121.821989,-121.821832,-121.821622,-121.813520,-121.993581,-122.635002,-122.634658,-122.634295,-122.633564,-122.611960,-122.597473,-122.855663
44,-126.905572,-124.992132,-121.585733,-121.606618,-121.635226,-121.754038,-122.007480,-122.007377,-122.007248,-122.007003,-121.998944,-122.172708,-122.791219,-122.790915,-122.790527,-122.789782,-122.767672,-122.759683,-123.016557
45,-127.100665,-125.288327,-121.775858,-121.798369,-121.828988,-121.953667,-122.189261,-122.189165,-122.189025,-122.188838,-122.180725,-122.348218,-122.945347,-122.944985,-122.944669,-122.943985,-122.922076,-122.918790,-123.174490
46,-127.291473,-125.562229,-121.961211,-121.985418,-122.018194,-122.149045,-122.367565,-122.367460,-122.367370,-122.367088,-122.358989,-122.520428,-123.097360,-123.097053,-123.096712,-123.096027,-123.074855,-123.075310,-123.329473
47,-127.478199,-125.820584,-122.141931,-122.167936,-122.202980,-122.340345,-122.542509,-122.542403,-122.542285,-122.542037,-122.533881,-122.689305,-123.247330,-123.247030,-123.246662,-123.246032,-123.225563,-123.229439,-123.481730
48,-127.660992,-126.047628,-122.318161,-122.346078,-122.383490,-122.527741,-122.714229,-122.714119,-122.714006,-122.713760,-122.705513,-122.855065,-123.395280,-123.394974,-123.394648,-123.394009,-123.374175,-123.381036,-123.631331
49,-127.840000,-126.258680,-122.490059,-122.519974,-122.559887,-122.711377,-122.882817,-122.882709,-122.882571,-122.882359,-122.873969,-123.017712,-123.541212,-123.540928,-123.540618,-123.539986,-123.520739,-123.530301,-123.778417
50,-128.015405,-126.454634,-122.657738,-122.689749,-122.732274,-122.891426,-123.048387,-123.048276,-123.048162,-123.047907,-123.039414,-123.177463,-123.685202,-123.684929,-123.684623,-123.684015,-123.665294,-123.677007,-123.922956
51,-128.187347,-126.630806,-122.821311,-122.855545,-122.900840,-123.067975,-123.211053,-123.210948,-123.210811,-123.210569,-123.201914,-123.334363,-123.827269,-123.827005,-123.826707,-123.826122,-123.807895,-123.821543,-124.065176
52,-128.355951,-126.791525,-122.980905,-123.017437,-123.065576,-123.241201,-123.370886,-123.370779,-123.370654,-123.370402,-123.361604,-123.488553,-123.967448,-123.967190,-123.966897,-123.966336,-123.948563,-123.963866,-124.205117
53,-128.521351,-126.939717,-123.136567,-123.175610,-123.226724,-123.411238,-123.528003,-123.527887,-123.527769,-123.527507,-123.518501,-123.640087,-124.105769,-124.105525,-124.105246,-124.104685,-124.087335,-124.104123,-124.342813
54,-128.683612,-127.076018,-123.288435,-123.329990,-123.384279,-123.578085,-123.682477,-123.682372,-123.682235,-123.681980,-123.672769,-123.789064,-124.242283,-124.242041,-124.241777,-124.241218,-124.224252,-124.242462,-124.478371
55,-128.842964,-127.201365,-123.436620,-123.480840,-123.538449,-123.741972,-123.834400,-123.834289,-123.834162,-123.833899,-123.824474,-123.935580,-124.377013,-124.376782,-124.376514,-124.375976,-124.359362,-124.378273,-124.612136
56,-128.999412,-127.316492,-123.581126,-123.628179,-123.689216,-123.902973,-123.983864,-123.983753,-123.983613,-123.983341,-123.973697,-124.080412,-124.510012,-124.509778,-124.509514,-124.508992,-124.492685,-124.512390,-124.743325
57,-129.153124,-127.422317,-123.722078,-123.772087,-123.836734,-124.061150,-124.130912,-124.130809,-124.130677,-124.130396,-124.120508,-124.223565,-124.641282,-124.641055,-124.640804,-124.640288,-124.624267,-124.644546,-124.872945
58,-129.304113,-127.583405,-123.859585,-123.912640,-123.981047,-124.216623,-124.275650,-124.275544,-124.275406,-124.275120,-124.264989,-124.364423,-124.770886,-124.770650,-124.770408,-124.769908,-124.754154,-124.774844,-125.000507
59,-129.452552,-127.877503,-123.993623,-124.049911,-124.122173,-124.369471,-124.418150,-124.418032,-124.417909,-124.417601,-124.407208,-124.503067,-124.898836,-124.898617,-124.898376,-124.897880,-124.882356,-124.903411,-125.126710
60,-129.598493,-128.168002,-124.124377,-124.183987,-124.260311,-124.519779,-124.558450,-124.558325,-124.558185,-124.557906,-124.547249,-124.639553,-125.025183,-125.024968,-125.024723,-125.024242,-125.008932,-125.030157,-125.251264
61,-129.742044,-128.455114,-124.251708,-124.314847,-124.395541,-124.667641,-124.696632,-124.696514,-124.696370,-124.696070,-124.685143,-124.773956,-125.149945,-125.149735,-125.149503,-125.149025,-125.133904,-125.155157,-125.374051
62,-129.883237,-128.736158,-124.375685,-124.442491,-124.527534,-124.812888,-124.832757,-124.832635,-124.832493,-124.832192,-124.820998,-124.906321,-125.273180,-125.272976,-125.272734,-125.272255,-125.257336,-125.278519,-125.494933
63,-130.022162,-129.008312,-124.496185,-124.566756,-124.656338,-124.955472,-124.966896,-124.966767,-124.966625,-124.966309,-124.954823,-125.036736,-125.394887,-125.394675,-125.394494,-125.393981,-125.379186,-125.400213,-125.614228
64,-130.158920,-129.264516,-124.612734,-124.687240,-124.781564,-125.094883,-125.099081,-125.098959,-125.098806,-125.098504,-125.086713,-125.165227,-125.515111,-125.514907,-125.514704,-125.514220,-125.499558,-125.520329,-125.732028
65,-130.293554,-129.506806,-124.725327,-124.803917,-124.903104,-125.231056,-125.229386,-125.229258,-125.229100,-125.228780,-125.216712,-125.291868,-125.633892,-125.633691,-125.633483,-125.632999,-125.618452,-125.638885,-125.848322
66,-130.426131,-129.758757,-124.835433,-124.918207,-125.022448,-125.365753,-125.357860,-125.357724,-125.357565,-125.357238,-125.344871,-125.416705,-125.751246,-125.751050,-125.750857,-125.750365,-125.735923,-125.755928,-125.963008
67,-130.556731,-130.001352,-124.942049,-125.029117,-125.138569,-125.497721,-125.484553,-125.484416,-125.484252,-125.483909,-125.471233,-125.539780,-125.867213,-125.867032,-125.866782,-125.866343,-125.851965,-125.871467,-126.076404
68,-130.685376,-130.232967,-125.044882,-125.136520,-125.251291,-125.626812,-125.609501,-125.609364,-125.609199,-125.608853,-125.595867,-125.661160,-125.981805,-125.981602,-125.981390,-125.980942,-125.966646,-125.985606,-126.188178
69,-130.812148,-130.469568,-125.145012,-125.241319,-125.361635,-125.754123,-125.732760,-125.732618,-125.732456,-125.732101,-125.718796,-125.780858,-126.095083,-126.094842,-126.094650,-126.094216,-126.079976,-126.098303,-126.298555
70,-130.937102,-130.705813,-125.242064,-125.343169,-125.469218,-125.879283,-125.854382,-125.854238,-125.854067,-125.853712,-125.840087,-125.898954,-126.207023,-126.206822,-126.206605,-126.206158,-126.191962,-126.209623,-126.407625
71,-131.060279,-130.937601,-125.336099,-125.442176,-125.574102,-126.002300,-125.974407,-125.974248,-125.974072,-125.973707,-125.959777,-126.015480,-126.317705,-126.317505,-126.317303,-126.316827,-126.302660,-126.319608,-126.515485
72,-131.181734,-131.169946,-125.427443,-125.538576,-125.676534,-126.123633,-126.092853,-126.092712,-126.092525,-126.092152,-126.077892,-126.130498,-126.427099,-126.426904,-126.426689,-126.426247,-126.412090,-126.428273,-126.621892
73,-131.301524,-131.399858,-125.515499,-125.631974,-125.776186,-126.242645,-126.209792,-126.209644,-126.209461,-126.209078,-126.194500,-126.243975,-126.535289,-126.535080,-126.534863,-126.534428,-126.520282,-126.535650,-126.727037
74,-131.419678,-131.628502,-125.600584,-125.722465,-125.873073,-126.359499,-126.325243,-126.325092,-126.324909,-126.324515,-126.309615,-126.356013,-126.642248,-126.642056,-126.641840,-126.641395,-126.627247,-126.641775,-126.831017
75,-131.536249,-131.863997,-125.683417,-125.810875,-125.968063,-126.475258,-126.439250,-126.439101,-126.438911,-126.438515,-126.423279,-126.466631,-126.748037,-126.747822,-126.747661,-126.747188,-126.733022,-126.746674,-126.934033
76,-131.651276,-132.096386,-125.763281,-125.896483,-126.060427,-126.589035,-126.551859,-126.551704,-126.551504,-126.551097,-126.535536,-126.575864,-126.852671,-126.852509,-126.852255,-126.851821,-126.837648,-126.850359,-127.035408
77,-131.764796,-132.324714,-125.840205,-125.979285,-126.150151,-126.700681,-126.663079,-126.662923,-126.662729,-126.662315,-126.646412,-126.683673,-126.956187,-126.955974,-126.955746,-126.955312,-126.941092,-126.952872,-127.135880
78,-131.876852,-132.552338,-125.914185,-126.059310,-126.237269,-126.810401,-126.772967,-126.772803,-126.772599,-126.772186,-126.755953,-126.790287,-127.058536,-127.058345,-127.058156,-127.057681,-127.043443,-127.054244,-127.235162
79,-131.987469,-132.783688,-125.985713,-126.137048,-126.322204,-126.918749,-126.881544,-126.881376,-126.881165,-126.880741,-126.864173,-126.895591,-127.159815,-127.159629,-127.159427,-127.158968,-127.144654,-127.154486,-127.333390
80,-132.096745,-133.020160,-126.055063,-126.212749,-126.405318,-127.025961,-126.988835,-126.988666,-126.988454,-126.988026,-126.971121,-126.999593,-127.260036,-127.259844,-127.259624,-127.259185,-127.244846,-127.254391,-127.430531
81,-132.204627,-133.256714,-126.121656,-126.285872,-126.486011,-127.131403,-127.094871,-127.094704,-127.094493,-127.094049,-127.076805,-127.102407,-127.359210,-127.359014,-127.358811,-127.358350,-127.343933,-127.353391,-127.526601
82,-132.311135,-133.493515,-126.185521,-126.356435,-126.564283,-127.235097,-127.199704,-127.199534,-127.199317,-127.198862,-127.181283,-127.203960,-127.457328,-127.457130,-127.456905,-127.456476,-127.442002,-127.451315,-127.621710
83,-132.416427,-133.730161,-126.246715,-126.424385,-126.640140,-127.337032,-127.303330,-127.303158,-127.302939,-127.302482,-127.284562,-127.304418,-127.554433,-127.554255,-127.554034,-127.553606,-127.539037,-127.548170,-127.715718
84,-132.520469,-133.964623,-126.305217,-126.489862,-126.713575,-127.437251,-127.405797,-127.405628,-127.405400,-127.404936,-127.386681,-127.403632,-127.650603,-127.650377,-127.650161,-127.649648,-127.635068,-127.643997,-127.808799
