5100MHz / Lb(0.95) dB
,h2(m),1000,1000,1000,1000,1000,10000,10000,10000,10000,10000,10000,20000,20000,20000,20000,20000,20000,20000
,h1(m),1.5,15,30,60,1000,1.5,15,30,60,1000,10000,1.5,15,30,60,1000,10000,20000
D (km),FSL
0,-106.588365,-114.217776,-114.099382,-113.965919,-113.692693,0.000000,-134.254859,-134.242967,-134.229735,-134.203212,-133.329436,0.000000,-140.276111,-140.270089,-140.263393,-140.249987,-139.819658,-134.219238,0.000000
1,-109.605463,-118.287480,-118.124346,-117.943324,-117.582742,-109.920631,-134.315368,-134.283575,-134.248231,-134.177487,-131.951151,-107.049500,-140.290771,-140.274701,-140.256840,-140.221103,-139.090719,-128.877251,-106.931082
2,-113.588746,-123.183917,-123.108830,-123.025187,-122.859868,-118.852942,-134.499911,-134.468821,-134.434264,-134.365125,-132.182752,-113.286581,-140.337965,-140.321964,-140.304181,-140.268596,-139.143556,-129.035362,-113.084120
3,-116.600634,-126.510931,-126.480140,-126.446142,-126.378552,-124.164081,-134.795081,-134.765124,-134.731863,-134.665268,-132.552512,-117.134462,-140.415933,-140.400075,-140.382440,-140.347157,-139.232131,-129.301358,-116.704987
4,-118.905717,-128.986137,-128.966188,-128.944271,-128.900629,-127.536143,-135.184115,-135.155634,-135.124032,-135.060754,-133.057315,-119.943947,-140.523569,-140.507891,-140.490482,-140.455628,-139.355052,-129.655320,-119.324336
5,-120.751130,-130.943101,-130.929052,-130.913398,-130.882404,-129.993732,-135.647375,-135.620587,-135.590872,-135.531370,-133.656013,-122.221197,-140.659282,-140.643863,-140.626727,-140.592431,-139.510337,-130.081170,-121.441490
6,-122.283690,-132.555617,-132.544815,-132.532901,-132.509270,-131.898980,-136.157281,-136.134303,-136.108765,-136.056859,-134.315765,-124.150726,-140.821121,-140.806007,-140.789191,-140.755587,-139.695557,-130.562288,-123.173387
7,-123.591448,-133.924523,-133.915965,-133.906535,-133.887756,-133.392693,-136.692188,-136.670914,-136.647262,-136.600016,-135.011538,-125.823496,-141.006854,-140.992081,-140.975660,-140.942800,-139.907934,-131.083006,-124.659319
8,-124.730935,-135.113128,-135.106074,-135.098381,-135.082844,-134.669243,-137.247924,-137.228301,-137.206501,-137.162942,-135.722969,-127.343432,-141.214005,-141.199613,-141.183619,-141.151615,-140.144456,-131.629853,-125.987310
9,-125.740011,-136.163179,-136.157273,-136.150682,-136.137569,-135.783842,-137.812776,-137.794687,-137.774652,-137.734546,-136.434850,-128.700610,-141.440057,-141.426068,-141.410521,-141.379449,-140.401960,-132.221123,-127.182307
10,-126.645146,-137.103454,-137.098427,-137.092719,-137.081474,-136.773347,-138.377794,-138.361193,-138.342796,-138.305906,-137.136388,-129.977775,-141.682392,-141.668839,-141.653772,-141.623666,-140.677331,-132.831177,-128.269449
11,-127.465554,-137.954836,-137.949559,-137.943854,-137.932601,-137.663282,-138.936594,-138.921303,-138.904374,-138.870542,-137.820360,-131.126498,-141.938224,-141.925416,-141.910844,-141.881714,-140.967518,-133.439971,-129.266267
12,-128.215618,-138.732685,-138.727814,-138.722481,-138.712121,-138.472045,-139.484663,-139.470614,-139.455000,-139.423875,-138.459124,-132.228533,-142.196107,-142.184461,-142.171514,-142.145604,-141.269635,-134.041981,-130.206134
13,-128.906491,-139.448880,-139.444228,-139.439204,-139.429443,-139.213380,-140.018997,-140.006093,-139.991739,-139.963068,-139.074925,-133.262580,-142.462901,-142.451684,-142.439220,-142.414260,-141.580980,-134.633194,-131.069814
14,-129.546636,-140.112397,-140.107992,-140.103125,-140.093810,-139.897848,-140.537896,-140.525996,-140.512731,-140.486230,-139.666877,-134.212096,-142.736635,-142.725828,-142.713827,-142.689811,-141.899128,-135.243235,-131.889148
15,-130.143081,-140.730650,-140.726310,-140.721589,-140.712598,-140.533645,-141.040426,-141.029330,-141.017041,-140.992475,-140.234673,-135.095239,-143.015461,-143.005079,-142.993533,-142.970470,-142.221933,-135.855322,-132.676798
16,-130.701348,-141.309444,-141.305130,-141.300512,-141.291614,-141.127412,-141.525888,-141.515755,-141.504242,-141.481522,-140.778746,-135.980506,-143.297824,-143.287843,-143.276766,-143.254602,-142.547434,-136.449030,-133.412359
17,-131.225977,-141.853535,-141.849258,-141.844627,-141.835839,-141.684448,-141.994561,-141.985062,-141.974519,-141.953256,-141.299903,-136.803440,-143.582279,-143.572715,-143.562078,-143.540819,-142.874021,-137.023877,-134.102059
18,-131.720840,-142.366966,-142.362632,-142.357973,-142.349202,-142.209053,-142.446724,-142.437868,-142.428004,-142.408315,-141.799023,-137.571186,-143.867645,-143.858473,-143.848269,-143.827878,-143.190724,-137.579586,-134.784663
19,-132.189132,-142.853062,-142.848609,-142.843897,-142.835044,-142.704945,-142.882820,-142.874516,-142.865293,-142.846832,-142.277358,-138.289694,-144.152866,-144.144071,-144.134279,-144.114734,-143.503922,-138.116295,-135.442832
20,-132.633466,-143.314534,-143.310098,-143.305167,-143.296172,-143.150913,-143.303472,-143.295582,-143.287221,-143.269712,-142.735838,-138.964235,-144.437067,-144.428626,-144.419243,-144.400480,-143.814915,-138.662742,-136.065532
21,-133.056235,-143.753852,-143.749224,-143.744272,-143.735035,-143.595565,-143.688038,-143.682752,-143.676742,-143.664673,-143.175789,-139.620954,-144.719524,-144.711411,-144.702408,-144.684407,-144.122955,-139.207928,-136.656109
22,-133.459449,-144.173085,-144.168291,-144.163157,-144.153672,-144.019176,-144.058348,-144.053228,-144.047531,-144.036201,-143.598272,-140.251702,-144.999578,-144.991794,-144.983171,-144.965903,-144.427431,-139.733302,-137.217401
23,-133.844834,-144.573991,-144.568983,-144.563626,-144.553809,-144.423715,-144.416438,-144.411623,-144.406272,-144.395537,-144.004313,-140.847710,-145.276761,-145.269314,-145.261015,-145.244456,-144.727859,-140.239608,-137.786260
24,-134.213786,-144.957979,-144.952846,-144.947256,-144.937038,-144.810824,-144.763027,-144.758476,-144.753402,-144.743289,-144.395050,-141.412161,-145.550666,-145.543502,-145.535563,-145.519663,-145.023837,-140.727625,-138.341230
25,-134.567778,-145.326512,-145.321137,-145.315320,-145.304626,-145.181934,-145.098692,-145.094375,-145.089569,-145.079973,-144.771249,-141.947743,-145.821018,-145.814121,-145.806487,-145.791218,-145.315092,-141.198179,-138.871277
26,-134.907920,-145.680646,-145.675057,-145.668927,-145.657664,-145.538347,-145.423945,-145.419852,-145.415277,-145.406155,-145.123540,-142.456973,-146.087479,-146.080862,-146.073531,-146.058842,-145.601376,-141.652002,-139.378413
27,-135.235284,-146.021355,-146.015508,-146.009060,-145.997102,-145.881140,-145.739300,-145.735391,-145.731025,-145.722348,-145.453036,-142.942060,-146.349934,-146.343594,-146.336535,-146.322436,-145.882601,-142.089836,-139.864298
28,-135.550749,-146.349354,-146.343283,-146.336445,-146.323812,-146.211365,-146.045222,-146.041498,-146.037338,-146.029079,-145.771900,-143.404898,-146.608254,-146.602120,-146.595365,-146.581768,-146.158685,-142.516263,-140.330449
29,-135.855175,-146.665337,-146.659112,-146.651931,-146.638750,-146.529918,-146.342208,-146.338636,-146.334684,-146.326778,-146.080651,-143.847185,-146.862328,-146.856451,-146.849818,-146.836814,-146.429492,-142.946534,-140.778260
30,-136.149286,-146.970041,-146.963800,-146.956453,-146.943091,-146.837531,-146.630701,-146.627283,-146.623490,-146.615889,-146.379932,-144.270551,-147.112082,-147.106421,-147.100183,-147.087521,-146.695116,-143.361984,-141.240565
31,-136.433797,-147.264561,-147.258528,-147.251144,-147.237692,-147.135019,-146.911136,-146.907841,-146.904174,-146.896899,-146.670204,-144.662375,-147.357619,-147.352146,-147.346034,-147.333773,-146.955556,-143.763409,-141.692582
32,-136.709288,-147.549989,-147.544201,-147.536811,-147.523261,-147.422974,-147.183821,-147.180650,-147.177132,-147.170154,-146.951954,-145.038099,-147.598670,-147.593380,-147.587533,-147.575821,-147.210943,-144.151426,-142.127837
33,-136.976327,-147.827144,-147.821518,-147.814078,-147.800282,-147.701980,-147.449181,-147.446157,-147.442771,-147.436049,-147.225678,-145.399459,-147.835497,-147.830435,-147.824752,-147.813432,-147.461092,-144.526704,-142.547426
34,-137.235385,-148.096497,-148.090950,-148.083358,-148.069216,-147.972595,-147.707619,-147.704673,-147.701427,-147.694910,-147.491726,-145.747097,-148.068081,-148.063153,-148.057693,-148.046860,-147.706303,-144.889942,-142.952213
35,-137.486953,-148.358464,-148.352905,-148.345095,-148.330487,-148.235297,-147.959359,-147.956532,-147.953412,-147.947114,-147.750574,-146.082622,-148.296456,-148.291780,-148.286459,-148.275933,-147.946673,-145.241633,-143.343065
36,-137.731445,-148.613389,-148.607724,-148.599649,-148.584509,-148.490529,-148.204788,-148.202048,-148.199001,-148.192932,-148.002508,-146.406122,-148.520700,-148.516127,-148.511064,-148.500815,-148.182162,-145.582475,-143.720834
37,-137.969254,-148.861617,-148.855813,-148.847414,-148.831672,-148.738711,-148.444162,-148.441515,-148.438549,-148.432680,-148.247899,-146.718887,-148.740879,-148.736488,-148.731438,-148.721520,-148.413189,-145.912823,-144.086172
38,-138.200728,-149.103555,-149.097516,-149.088768,-149.072357,-148.980291,-148.677772,-148.675202,-148.672361,-148.666626,-148.487052,-147.021093,-148.957091,-148.952790,-148.947933,-148.938339,-148.639390,-146.233321,-144.439820
39,-138.426177,-149.340585,-149.334314,-149.325171,-149.308072,-149.216798,-148.905867,-148.903339,-148.900569,-148.895021,-148.720298,-147.313828,-149.165947,-149.162791,-149.159269,-149.151169,-148.861239,-146.544387,-144.782352
40,-138.645955,-149.576002,-149.569439,-149.559891,-149.542103,-149.451783,-149.128659,-149.126220,-149.123526,-149.118113,-148.947875,-147.597418,-149.362305,-149.359240,-149.355808,-149.349001,-149.078701,-146.846467,-145.120809
41,-138.860313,-149.805248,-149.798370,-149.788417,-149.769829,-149.680255,-149.346425,-149.344038,-149.341406,-149.336164,-149.170058,-147.872379,-149.555327,-149.552346,-149.549087,-149.542432,-149.291933,-147.139997,-145.460232
42,-139.069505,-150.032194,-150.024967,-150.014548,-149.995261,-149.906488,-149.559322,-149.557016,-149.554452,-149.549304,-149.387054,-148.139400,-149.745162,-149.742263,-149.739023,-149.732604,-149.501107,-147.425417,-145.789513
43,-139.273769,-150.254161,-150.246570,-150.235673,-150.215574,-150.127640,-149.767598,-149.765354,-149.762818,-149.757846,-149.599137,-148.398349,-149.931809,-149.928989,-149.925876,-149.919647,-149.706317,-147.695313,-146.109148
44,-139.473346,-150.472236,-150.464247,-150.452849,-150.431972,-150.344803,-149.971442,-149.969245,-149.966791,-149.961895,-149.806512,-148.650230,-150.115351,-150.112630,-150.109560,-150.103450,-149.907627,-147.955939,-146.419570
45,-139.668444,-150.685832,-150.677755,-150.665840,-150.644071,-150.557681,-150.171019,-150.168877,-150.166464,-150.161726,-150.009372,-148.895144,-150.295899,-150.293182,-150.290248,-150.284325,-150.098407,-148.209360,-146.721301
46,-139.859258,-150.890604,-150.887680,-150.875205,-150.852566,-150.766946,-150.366502,-150.364394,-150.362078,-150.357339,-150.207897,-149.133611,-150.473470,-150.470863,-150.467966,-150.462170,-150.280792,-148.456480,-147.014579
47,-140.046017,-151.091121,-151.090796,-151.079971,-151.056421,-150.971485,-150.558043,-150.555975,-150.553675,-150.549060,-150.402286,-149.365805,-150.648177,-150.645630,-150.642767,-150.637140,-150.460091,-148.697692,-147.299961
48,-140.228760,-151.288234,-151.287811,-151.282062,-151.257568,-151.173379,-150.745815,-150.743779,-150.741527,-150.736999,-150.592691,-149.592132,-150.820078,-150.817575,-150.814807,-150.809285,-150.636330,-148.932985,-147.577753
49,-140.407773,-151.481457,-151.480880,-151.476406,-151.454498,-151.371020,-150.929936,-150.927939,-150.925701,-150.921285,-150.779246,-149.812739,-150.989211,-150.986778,-150.984080,-150.978671,-150.809596,-149.162762,-147.848358
50,-140.583187,-151.670742,-151.669960,-151.665231,-151.646934,-151.564127,-151.110551,-151.108585,-151.106407,-151.102023,-150.962153,-150.028019,-151.155687,-151.153310,-151.150667,-151.145383,-150.979970,-149.386895,-148.111906
51,-140.755124,-151.856957,-151.855945,-151.850964,-151.836693,-151.754517,-151.287803,-151.285873,-151.283707,-151.279408,-151.141512,-150.238146,-151.319556,-151.317232,-151.314644,-151.309481,-151.147553,-149.605991,-148.368913
52,-140.923737,-152.040287,-152.039020,-152.033732,-152.023251,-151.942447,-151.461784,-151.459882,-151.457763,-151.453519,-151.317495,-150.443409,-151.480882,-151.478605,-151.476068,-151.471023,-151.312403,-149.820140,-148.619590
53,-141.089117,-152.220310,-152.218734,-152.213221,-152.202259,-152.126907,-151.632637,-151.630754,-151.628674,-151.624482,-151.490148,-150.643972,-151.639724,-151.637502,-151.635024,-151.630065,-151.474592,-150.029629,-148.864137
54,-141.251417,-152.396354,-152.394415,-152.388516,-152.377096,-152.305921,-151.800455,-151.798612,-151.796541,-151.792416,-151.659667,-150.840052,-151.796163,-151.793980,-151.791561,-151.786688,-151.634196,-150.234772,-149.102875
55,-141.410765,-152.569697,-152.567366,-152.561088,-152.549187,-152.482395,-151.965352,-151.963528,-151.961495,-151.957419,-151.826143,-151.031855,-151.950247,-151.948111,-151.945725,-151.940953,-151.791298,-150.434864,-149.336457
56,-141.567176,-152.740359,-152.737618,-152.730983,-152.718537,-152.656431,-152.127440,-152.125640,-152.123620,-152.119587,-151.989685,-151.213454,-152.102050,-152.099946,-152.097603,-152.092926,-151.945945,-150.631098,-149.563797
57,-141.720930,-152.908650,-152.905337,-152.898314,-152.885334,-152.828113,-152.286776,-152.285006,-152.283021,-152.279028,-152.150383,-151.385629,-152.251601,-152.249536,-152.247245,-152.242645,-152.098216,-150.823226,-149.786545
58,-141.871895,-153.074426,-153.070673,-153.063188,-153.049644,-152.997592,-152.443485,-152.441734,-152.439766,-152.435816,-152.308345,-151.554442,-152.398984,-152.396943,-152.394694,-152.390181,-152.248184,-151.011471,-150.004113
59,-142.020331,-153.237979,-153.233629,-153.225713,-153.211513,-153.164973,-152.597656,-152.595911,-152.593981,-152.590053,-152.463658,-151.720032,-152.544230,-152.542237,-152.540024,-152.535582,-152.395884,-151.196020,-150.210846
60,-142.166287,-153.397849,-153.392896,-153.384442,-153.369574,-153.326838,-152.749338,-152.747605,-152.745678,-152.741824,-152.616425,-151.882506,-152.687414,-152.685453,-152.683267,-152.678905,-152.541401,-151.376892,-150.411786
61,-142.309818,-153.555147,-153.549412,-153.540451,-153.525026,-153.485691,-152.898628,-152.896921,-152.895010,-152.891173,-152.766696,-152.041986,-152.828571,-152.826641,-152.824500,-152.820202,-152.684779,-151.554251,-150.608511
62,-142.451008,-153.710278,-153.703747,-153.694240,-153.678031,-153.642286,-153.045599,-153.043906,-153.042017,-153.038216,-152.914595,-152.198562,-152.967774,-152.965878,-152.963757,-152.959514,-152.826108,-151.728282,-150.800924
63,-142.589946,-153.863342,-153.855982,-153.845846,-153.828850,-153.796800,-153.190338,-153.188653,-153.186782,-153.183002,-153.060146,-152.352370,-153.105044,-153.103164,-153.101133,-153.096912,-152.965362,-151.899018,-150.989570
64,-142.726703,-154.014419,-154.006128,-153.995373,-153.977621,-153.949280,-153.332884,-153.331222,-153.329356,-153.325624,-153.203462,-152.503468,-153.240437,-153.238592,-153.236562,-153.232428,-153.102671,-152.066634,-151.174601
65,-142.861349,-154.163588,-154.154287,-154.142896,-154.124338,-154.099787,-153.473323,-153.471670,-153.469815,-153.466097,-153.344599,-152.651972,-153.374014,-153.372194,-153.370187,-153.366101,-153.238048,-152.231207,-151.356096
66,-142.993931,-154.310899,-154.300529,-154.288390,-154.268983,-154.248403,-153.611716,-153.610067,-153.608227,-153.604532,-153.483621,-152.797964,-153.505802,-153.504009,-153.502042,-153.497999,-153.371572,-152.392852,-151.534018
67,-143.124500,-154.456413,-154.444980,-154.432022,-154.411735,-154.395193,-153.748120,-153.746483,-153.744653,-153.740969,-153.620585,-152.941516,-153.635857,-153.634101,-153.632098,-153.628156,-153.503249,-152.551641,-151.708798
68,-143.253149,-154.600234,-154.587527,-154.573864,-154.552623,-154.540233,-153.882581,-153.880957,-153.879138,-153.875480,-153.755569,-153.082729,-153.764201,-153.762446,-153.760503,-153.756597,-153.633170,-152.707723,-151.880123
69,-143.379925,-154.742417,-154.728385,-154.713905,-154.691719,-154.683559,-154.015163,-154.013545,-154.011743,-154.008100,-153.888610,-153.221644,-153.890911,-153.889135,-153.887236,-153.883387,-153.761353,-152.861120,-152.048322
70,-143.504879,-154.882800,-154.867334,-154.851965,-154.828811,-154.824715,-154.145926,-154.144319,-154.142518,-154.138900,-154.019783,-153.358368,-154.015975,-154.014257,-154.012354,-154.008534,-153.887826,-153.011950,-152.213569
71,-143.628051,-155.020408,-155.003438,-154.987129,-154.962899,-154.959873,-154.274919,-154.273306,-154.271512,-154.267908,-154.149138,-153.492962,-154.139479,-154.137782,-154.135916,-154.132107,-154.012655,-153.160298,-152.376021
72,-143.749516,-155.154847,-155.137943,-155.120556,-155.095177,-155.093117,-154.402166,-154.400582,-154.398788,-154.395195,-154.276707,-153.625507,-154.261414,-154.259738,-154.257876,-154.254140,-154.135877,-153.306229,-152.535461
73,-143.869297,-155.278366,-155.270736,-155.252375,-155.225873,-155.224633,-154.527747,-154.526164,-154.524385,-154.520803,-154.402569,-153.756000,-154.381866,-154.380191,-154.378347,-154.374655,-154.257532,-153.449817,-152.692166
74,-143.987455,-155.390741,-155.402120,-155.382642,-155.354958,-155.354538,-154.651686,-154.650109,-154.648338,-154.644764,-154.526747,-153.884561,-154.500821,-154.499180,-154.497353,-154.493688,-154.377643,-153.591143,-152.846304
75,-144.104027,-155.492798,-155.531992,-155.511332,-155.482401,-155.482868,-154.774034,-154.772467,-154.770698,-154.767141,-154.649287,-154.011231,-154.618350,-154.616703,-154.614945,-154.611285,-154.496260,-153.730268,-152.998168
76,-144.219050,-155.585342,-155.660428,-155.638550,-155.608346,-155.609719,-154.894843,-154.893278,-154.891507,-154.887954,-154.770245,-154.136064,-154.734474,-154.732893,-154.731062,-154.727473,-154.613436,-153.867244,-153.146965
77,-144.332604,-155.669200,-155.787486,-155.764321,-155.732816,-155.734950,-155.014127,-155.012568,-155.010812,-155.007268,-154.889650,-154.259038,-154.849245,-154.847625,-154.845835,-154.842277,-154.729147,-154.002149,-153.293641
78,-144.444626,-155.703856,-155.913181,-155.888709,-155.855879,-155.858825,-155.131949,-155.130387,-155.128628,-155.125102,-155.007559,-154.380408,-154.962614,-154.961033,-154.959298,-154.955728,-154.843493,-154.135049,-153.437931
79,-144.555263,-155.714142,-156.037550,-156.011712,-155.977436,-155.981296,-155.248334,-155.246775,-155.245016,-155.241491,-155.123990,-154.500060,-155.074693,-155.073129,-155.071395,-155.067870,-154.956435,-154.265987,-153.579983
80,-144.664499,-155.764858,-156.160690,-156.133386,-156.097649,-156.102340,-155.363313,-155.361759,-155.360004,-155.356489,-155.238998,-154.618036,-155.185498,-155.183941,-155.182202,-155.178724,-155.068104,-154.388416,-153.719815
81,-144.772380,-155.834111,-156.282644,-156.253788,-156.216556,-156.222050,-155.476919,-155.475374,-155.473627,-155.470106,-155.352599,-154.734454,-155.295048,-155.293499,-155.291789,-155.288317,-155.178423,-154.507563,-153.857505
82,-144.878946,-155.895476,-156.403319,-156.372946,-156.334174,-156.340469,-155.589213,-155.587668,-155.585922,-155.582402,-155.464853,-154.849257,-155.403343,-155.401801,-155.400085,-155.396668,-155.287490,-154.625121,-153.993149
83,-144.984208,-155.951204,-156.522808,-156.490816,-156.450532,-156.457600,-155.700191,-155.698650,-155.696906,-155.693395,-155.575775,-154.962627,-155.510429,-155.508919,-155.507217,-155.503827,-155.395292,-154.741112,-154.126699
84,-145.088229,-156.003730,-156.641253,-156.607559,-156.565636,-156.573507,-155.809908,-155.808373,-155.806625,-155.803117,-155.685409,-155.074423,-155.616393,-155.614847,-155.613160,-155.609710,-155.501871,-154.855600,-154.258334
