600MHz / Lb(0.95) dB
,h2(m),1000,1000,1000,1000,1000,10000,10000,10000,10000,10000,10000,20000,20000,20000,20000,20000,20000,20000
,h1(m),1.5,15,30,60,1000,1.5,15,30,60,1000,10000,1.5,15,30,60,1000,10000,20000
D (km),FSL
0,-87.999986,-95.620578,-95.502306,-95.368977,-95.096021,0.000000,-115.638166,-115.626395,-115.613298,-115.587045,-114.721722,0.000000,-121.659418,-121.653517,-121.646956,-121.633820,-121.211944,-115.631019,0.000000
1,-91.017084,-99.686495,-99.523447,-99.342521,-98.982127,-91.323332,-115.698531,-115.666859,-115.631651,-115.561177,-113.343293,-88.461127,-121.674042,-121.658093,-121.640367,-121.604900,-120.482978,-110.288919,-88.342707
2,-95.000368,-104.575503,-104.500470,-104.416887,-104.251686,-100.246678,-115.882643,-115.851675,-115.817254,-115.748387,-113.574531,-94.698219,-121.721127,-121.705248,-121.687601,-121.652286,-120.535732,-110.447045,-94.495746
3,-98.012255,-107.894148,-107.863395,-107.829440,-107.761933,-105.548819,-116.177102,-116.147268,-116.114145,-116.047824,-113.943695,-98.546101,-121.798913,-121.783176,-121.765678,-121.730667,-120.624169,-110.713040,-98.116614
4,-100.317339,-110.360706,-110.340786,-110.318902,-110.275323,-108.911864,-116.565159,-116.536803,-116.505341,-116.442341,-114.447704,-101.355595,-121.906292,-121.890738,-121.873466,-121.838885,-120.746895,-111.067002,-100.735975
5,-102.162751,-112.308891,-112.294864,-112.279236,-112.248293,-111.360456,-117.027197,-117.000537,-116.970964,-116.911745,-115.045389,-103.632854,-122.041677,-122.026382,-122.009384,-121.975364,-120.901932,-111.492852,-102.853129
6,-103.695311,-113.912557,-113.901775,-113.889883,-113.866294,-113.256692,-117.535644,-117.512796,-117.487403,-117.435803,-115.703953,-105.562393,-122.203116,-122.188127,-122.171451,-122.138125,-121.086849,-111.973970,-104.585026
7,-105.003069,-115.272576,-115.264033,-115.254622,-115.235879,-114.741418,-118.068913,-118.047773,-118.024269,-117.977320,-116.398385,-107.235177,-122.388379,-122.373732,-122.357452,-122.324874,-121.298871,-112.494687,-106.070967
8,-106.142557,-116.452268,-116.445227,-116.437549,-116.422044,-116.008982,-118.622841,-118.603356,-118.581708,-118.538453,-117.108345,-108.755112,-122.594991,-122.580727,-122.564877,-122.533157,-121.534987,-113.041534,-107.398959
9,-107.151632,-117.493389,-117.487495,-117.480917,-117.467832,-117.114599,-119.185737,-119.167790,-119.147912,-119.108120,-117.818645,-110.112307,-122.820440,-122.806580,-122.791178,-122.760395,-121.792036,-113.632822,-108.593964
10,-108.056768,-118.424724,-118.419706,-118.414010,-118.402789,-118.095125,-119.748673,-119.732218,-119.713982,-119.677417,-118.518507,-111.389472,-123.062108,-123.048687,-123.033767,-123.003954,-122.066905,-114.242875,-109.681106
11,-108.877176,-119.267159,-119.261889,-119.256194,-119.244962,-118.976084,-120.305283,-120.290143,-120.273381,-120.239883,-119.200725,-112.538194,-123.317197,-123.304541,-123.290117,-123.261286,-122.356547,-114.851668,-110.677934
12,-109.627247,-120.033508,-120.031190,-120.025865,-120.015523,-119.775872,-120.851068,-120.837175,-120.821735,-120.790957,-119.837656,-113.640250,-123.574297,-123.562788,-123.549993,-123.524387,-122.658077,-115.453678,-111.617802
13,-110.318071,-120.585881,-120.738645,-120.733628,-120.723883,-120.508236,-121.383040,-121.370297,-121.356123,-121.327811,-120.451581,-114.674296,-123.840257,-123.829179,-123.816870,-123.792220,-122.968797,-116.044890,-112.481482
14,-110.958271,-120.910938,-121.393448,-121.388587,-121.379286,-121.183736,-121.899508,-121.887775,-121.874696,-121.848567,-121.041610,-115.623810,-124.113106,-124.102441,-124.090598,-124.066897,-123.286284,-116.654954,-113.300829
15,-111.554703,-120.987510,-122.002806,-121.998088,-121.989108,-121.810569,-122.399548,-122.388625,-122.376530,-122.352350,-121.607442,-116.506977,-124.391000,-124.380764,-124.369379,-124.346638,-123.608392,-117.267039,-114.088479
16,-112.112970,-120.721148,-122.572666,-122.568049,-122.559161,-122.395374,-122.882471,-122.872517,-122.861204,-122.838885,-122.149517,-117.392242,-124.672390,-124.662557,-124.651644,-124.629809,-123.933167,-117.860746,-114.824040
17,-112.637604,-120.273039,-123.107834,-123.103203,-123.094422,-122.943451,-123.348561,-123.339247,-123.328911,-123.308063,-122.668645,-118.215175,-124.955830,-124.946418,-124.935949,-124.915026,-124.258999,-118.435592,-115.513740
18,-113.132472,-119.670404,-123.612253,-123.607590,-123.598823,-123.459101,-123.798101,-123.789438,-123.779788,-123.760528,-123.165710,-118.982920,-125.240145,-125.231128,-125.221096,-125.201049,-124.574905,-118.991300,-116.196361
19,-113.600754,-119.148689,-124.089279,-124.084561,-124.075708,-123.946040,-124.231541,-124.223436,-124.214435,-124.196419,-123.641968,-119.701427,-125.524282,-125.515644,-125.506028,-125.486835,-124.887297,-119.528007,-116.854531
20,-114.045088,-118.693545,-124.541822,-124.536883,-124.527885,-124.383060,-124.649507,-124.641823,-124.633690,-124.616643,-124.098351,-120.375966,-125.807365,-125.799086,-125.789883,-125.771480,-125.197462,-120.074479,-117.477230
21,-114.467857,-118.342317,-124.972014,-124.967048,-124.957806,-124.818766,-125.031339,-125.026265,-125.020492,-125.008899,-124.536187,-121.032699,-126.088678,-126.080730,-126.071910,-126.054277,-125.504653,-120.619663,-118.067807
22,-114.871071,-118.155534,-125.382158,-125.377006,-125.367514,-125.233436,-125.398913,-125.394013,-125.388561,-125.377723,-124.956539,-121.663446,-126.367559,-126.359944,-126.351509,-126.334617,-125.808261,-121.145035,-118.629099
23,-115.256409,-118.035450,-125.773946,-125.768568,-125.758742,-125.629037,-125.754247,-125.749660,-125.744562,-125.734335,-125.360436,-122.259454,-126.643545,-126.636271,-126.628164,-126.611990,-126.107804,-121.651340,-119.197980
24,-115.625409,-117.992638,-126.148931,-126.143315,-126.133089,-126.007212,-126.098061,-126.093744,-126.088932,-126.079343,-125.749014,-122.823903,-126.916230,-126.909243,-126.901501,-126.885995,-126.402880,-122.139355,-119.752950
25,-115.979418,-118.038405,-126.508385,-126.502536,-126.491841,-126.369392,-126.430933,-126.426858,-126.422321,-126.413266,-126.123045,-123.359485,-127.185341,-127.178626,-127.171193,-127.156326,-126.693219,-122.609907,-120.282996
26,-116.319545,-118.112788,-126.853526,-126.847361,-126.836113,-126.716880,-126.753378,-126.749534,-126.745237,-126.736672,-126.473135,-123.868715,-127.450542,-127.444111,-127.436985,-127.422708,-126.978573,-123.063728,-120.790132
27,-116.646893,-118.253149,-127.185290,-127.178806,-127.166889,-127.050752,-127.065910,-127.062257,-127.058177,-127.050075,-126.800442,-124.353801,-127.711719,-127.705568,-127.698720,-127.685042,-127.258856,-123.501560,-121.276017
28,-116.962349,-118.406361,-127.504513,-127.497637,-127.485066,-127.372061,-127.368995,-127.365535,-127.361670,-127.354003,-127.117109,-124.816639,-127.968744,-127.962804,-127.956264,-127.943098,-127.533986,-123.928002,-121.742167
29,-117.266802,-118.605300,-127.811965,-127.804727,-127.791578,-127.681701,-127.663133,-127.659833,-127.656184,-127.648886,-127.423654,-125.258926,-128.221508,-128.215828,-128.209416,-128.196854,-127.803829,-124.358272,-122.189978
30,-117.560914,-118.819268,-128.108443,-128.100971,-128.087526,-127.980407,-127.948765,-127.945627,-127.942146,-127.935171,-127.720721,-125.682293,-128.469938,-128.464479,-128.458466,-128.446255,-128.068478,-124.773719,-122.652308
31,-117.845425,-119.047556,-128.395036,-128.387412,-128.373712,-128.268991,-128.226330,-128.223322,-128.219976,-128.213344,-128.008772,-126.074106,-128.714137,-128.708870,-128.702989,-128.691189,-128.327934,-125.175142,-123.104324
32,-118.120916,-119.289909,-128.672560,-128.664799,-128.650832,-128.548049,-128.496134,-128.493258,-128.490070,-128.483752,-128.288294,-126.449831,-128.953838,-128.948759,-128.943147,-128.931906,-128.582329,-125.563157,-123.539578
33,-118.387935,-119.545820,-128.941681,-128.933744,-128.919381,-128.818162,-128.758604,-128.755883,-128.752835,-128.746790,-128.559783,-126.811192,-129.189304,-129.184457,-129.179014,-129.168175,-128.831478,-125.938434,-123.959168
34,-118.647011,-119.976107,-129.202876,-129.194675,-129.179833,-129.079890,-129.014143,-129.011508,-129.008608,-129.002787,-128.823590,-127.158831,-129.420515,-129.415808,-129.410592,-129.400250,-129.075682,-126.301670,-124.363954
35,-118.898582,-120.497500,-129.456570,-129.448049,-129.432620,-129.333709,-129.262976,-129.260468,-129.257703,-129.252118,-129.080191,-127.494358,-129.647508,-129.643056,-129.637986,-129.627961,-129.315037,-126.653359,-124.754806
36,-119.143063,-121.008643,-129.703120,-129.694237,-129.678163,-129.580065,-129.505489,-129.503076,-129.500393,-129.495055,-129.329872,-127.817860,-129.870359,-129.866016,-129.861208,-129.851471,-129.549505,-126.994200,-125.132575
37,-119.380890,-121.510215,-129.942940,-129.933642,-129.916857,-129.819376,-129.741940,-129.739627,-129.737034,-129.731914,-129.573004,-128.130626,-130.089138,-130.084981,-130.080192,-130.070796,-129.779504,-127.324546,-125.497912
38,-119.612359,-122.002665,-130.176299,-130.166561,-130.148999,-130.052004,-129.972619,-129.970392,-129.967932,-129.962964,-129.809893,-128.432835,-130.303939,-130.299878,-130.295287,-130.286226,-130.004673,-127.645042,-125.851561
39,-119.837821,-122.486576,-130.403579,-130.393351,-130.374982,-130.278308,-130.197777,-130.195599,-130.193219,-130.188456,-130.040870,-128.725571,-130.511355,-130.508442,-130.505192,-130.497660,-130.225483,-127.956107,-126.194093
40,-120.057586,-122.962474,-130.625052,-130.614295,-130.595072,-130.498622,-130.417624,-130.415543,-130.413249,-130.408638,-130.266173,-129.009165,-130.706288,-130.703472,-130.700316,-130.694064,-130.441901,-128.258185,-126.532565
41,-120.271930,-123.430831,-130.841030,-130.829744,-130.809558,-130.713159,-130.632439,-130.630418,-130.628194,-130.623772,-130.486076,-129.284128,-130.897879,-130.895151,-130.892174,-130.886084,-130.654085,-128.551714,-126.871988
42,-120.481133,-123.892146,-131.051736,-131.039835,-131.018741,-130.922271,-130.842379,-130.840446,-130.838300,-130.833990,-130.700787,-129.551152,-131.086275,-131.083634,-131.080682,-131.074839,-130.862206,-128.837132,-127.201269
43,-120.685389,-124.346750,-131.257442,-131.244906,-131.222780,-131.126202,-131.047690,-131.045828,-131.043719,-131.039603,-130.910581,-129.810104,-131.271477,-131.268921,-131.266101,-131.260458,-131.066358,-129.107016,-127.520904
44,-120.884969,-124.795149,-131.458373,-131.445164,-131.422013,-131.325190,-131.248563,-131.246757,-131.244738,-131.240716,-131.115662,-130.061988,-131.453569,-131.451117,-131.448345,-131.442832,-131.266606,-129.367641,-127.831326
45,-121.080071,-125.237707,-131.654734,-131.640823,-131.616521,-131.519425,-131.445164,-131.443421,-131.441452,-131.437606,-131.316223,-130.306906,-131.632660,-131.630217,-131.627586,-131.622272,-131.456298,-129.621060,-128.133058
46,-121.270888,-125.674789,-131.846740,-131.832070,-131.806607,-131.709132,-131.637665,-131.635964,-131.634100,-131.630272,-131.512444,-130.545377,-131.808769,-131.806441,-131.803853,-131.798676,-131.637615,-129.868179,-128.426336
47,-121.457595,-126.106724,-132.034563,-132.019104,-131.992428,-131.894497,-131.826219,-131.824565,-131.822727,-131.819041,-131.704524,-130.777575,-131.982009,-131.979745,-131.977197,-131.972200,-131.815841,-130.109390,-128.711718
48,-121.640383,-126.533890,-132.218379,-132.202105,-132.174148,-132.075708,-132.010996,-132.009383,-132.007602,-132.004021,-131.892616,-131.003906,-132.152437,-132.150222,-132.147774,-132.142895,-131.991003,-130.344682,-128.989510
49,-121.819397,-126.956621,-132.398376,-132.381228,-132.351948,-132.252923,-132.192117,-132.190551,-132.188793,-132.185342,-132.076853,-131.224517,-132.320093,-132.317953,-132.315581,-132.310825,-132.163189,-130.574457,-129.260116
50,-121.994805,-127.375227,-132.574698,-132.556625,-132.525953,-132.426326,-132.369727,-132.368199,-132.366511,-132.363111,-132.257437,-131.439802,-132.485086,-132.483008,-132.480696,-132.476076,-132.332480,-130.798590,-129.523664
51,-122.166749,-127.789971,-132.747489,-132.728461,-132.696369,-132.596016,-132.543967,-132.542485,-132.540818,-132.537521,-132.434468,-131.649933,-132.647468,-132.645447,-132.643197,-132.638710,-132.498977,-131.017685,-129.780672
52,-122.335353,-128.201101,-132.916909,-132.896839,-132.863208,-132.762181,-132.714932,-132.713485,-132.711874,-132.708650,-132.608119,-131.855201,-132.807303,-132.805334,-132.803140,-132.798782,-132.662737,-131.231832,-130.031350
53,-122.500738,-128.608872,-133.083034,-133.061967,-133.026729,-132.924966,-132.882763,-132.881344,-132.879780,-132.876627,-132.778435,-132.055770,-132.964649,-132.962741,-132.960611,-132.956351,-132.823834,-131.441320,-130.275898
54,-122.663030,-129.013547,-133.246034,-133.223797,-133.186949,-133.084383,-133.047554,-133.046182,-133.044636,-133.041569,-132.945612,-132.251855,-133.119588,-133.117724,-133.115658,-133.111496,-132.982342,-131.646463,-130.514637
55,-122.822367,-129.415435,-133.406050,-133.382615,-133.344089,-133.240669,-133.209418,-133.208073,-133.206575,-133.203574,-133.109743,-132.443663,-133.272168,-133.270355,-133.268330,-133.264280,-133.138346,-131.846554,-130.748221
56,-122.978846,-129.814742,-133.563116,-133.538466,-133.498154,-133.393908,-133.368466,-133.367154,-133.365678,-133.362740,-133.270933,-132.625250,-133.422464,-133.420688,-133.418711,-133.414767,-133.291892,-132.042787,-130.975561
57,-123.132496,-130.211516,-133.717387,-133.691452,-133.649315,-133.544173,-133.524759,-133.523484,-133.522052,-133.519172,-133.429276,-132.797432,-133.570503,-133.568772,-133.566852,-133.562997,-133.443059,-132.234914,-131.198310
58,-123.283515,-130.606223,-133.869003,-133.841675,-133.797632,-133.691593,-133.678418,-133.677171,-133.675764,-133.672946,-133.584876,-132.966251,-133.716371,-133.714669,-133.712797,-133.709040,-133.591921,-132.423158,-131.415880
59,-123.431957,-130.998982,-134.017969,-133.989230,-133.943146,-133.836255,-133.829533,-133.828301,-133.826942,-133.824163,-133.737824,-133.131848,-133.860098,-133.858448,-133.856619,-133.852944,-133.738511,-132.607707,-131.622603
60,-123.577919,-131.390019,-134.164497,-134.134228,-134.086068,-133.978253,-133.978154,-133.976942,-133.975596,-133.972909,-133.888220,-133.294329,-134.001759,-134.000147,-133.998350,-133.994768,-133.882916,-132.788578,-131.823545
61,-123.721423,-131.779380,-134.308481,-134.276670,-134.226493,-134.117690,-134.124378,-134.123200,-134.121879,-134.119228,-134.036115,-133.453817,-134.141390,-134.139814,-134.138068,-134.134561,-134.025181,-132.965937,-132.020272
62,-123.862620,-132.167432,-134.450153,-134.416720,-134.364268,-134.254569,-134.268278,-134.267121,-134.265831,-134.263235,-134.181633,-133.610401,-134.279064,-134.277527,-134.275806,-134.272367,-134.165393,-133.139966,-132.212686
63,-124.001568,-132.554326,-134.589592,-134.554414,-134.499631,-134.389052,-134.409939,-134.408799,-134.407536,-134.404979,-134.324799,-133.764216,-134.414800,-134.413285,-134.411660,-134.408255,-134.303528,-133.310702,-132.401335
64,-124.138318,-132.940187,-134.726813,-134.689851,-134.632709,-134.521185,-134.549402,-134.548292,-134.547044,-134.544554,-134.465724,-133.915322,-134.548658,-134.547182,-134.545565,-134.542257,-134.439715,-133.478317,-132.586368
65,-124.272949,-133.325217,-134.861913,-134.823099,-134.763498,-134.651030,-134.686752,-134.685660,-134.684431,-134.681974,-134.604465,-134.063836,-134.680695,-134.679250,-134.677661,-134.674414,-134.573970,-133.642889,-132.767865
66,-124.405532,-133.709609,-134.994961,-134.954141,-134.891984,-134.778662,-134.822050,-134.820970,-134.819766,-134.817350,-134.741086,-134.209836,-134.810940,-134.809528,-134.807984,-134.804792,-134.706367,-133.804533,-132.945789
67,-124.536120,-134.093508,-135.126073,-135.083127,-135.018329,-134.904145,-134.955354,-134.954294,-134.953108,-134.950723,-134.875644,-134.353397,-134.939449,-134.938078,-134.936506,-134.933426,-134.836916,-133.963322,-133.120571
68,-124.664770,-134.477078,-135.255150,-135.210124,-135.142558,-135.027550,-135.086709,-135.085670,-135.084505,-135.082163,-135.008217,-134.494620,-135.066244,-135.064880,-135.063373,-135.060340,-134.965706,-134.119403,-133.291899
69,-124.791548,-134.860506,-135.382392,-135.335124,-135.264737,-135.148915,-135.216179,-135.215154,-135.214015,-135.211707,-135.138840,-134.633544,-135.191402,-135.190023,-135.188566,-135.185602,-135.092756,-134.272800,-133.460100
70,-124.916522,-135.243998,-135.507805,-135.458172,-135.384889,-135.268302,-135.343825,-135.342818,-135.341691,-135.339426,-135.267591,-134.770278,-135.314911,-135.313594,-135.312139,-135.309216,-135.218094,-134.423629,-133.625349
71,-125.039681,-135.627541,-135.631494,-135.579413,-135.503115,-135.385770,-135.469694,-135.468691,-135.467578,-135.465345,-135.394517,-134.904882,-135.436856,-135.435567,-135.434153,-135.431254,-135.341785,-134.571977,-133.787805
72,-125.161143,-136.011487,-135.753493,-135.698776,-135.619340,-135.501399,-135.593811,-135.592844,-135.591741,-135.589539,-135.519653,-135.037437,-135.557230,-135.555967,-135.554565,-135.551749,-135.463867,-134.717907,-133.947247
73,-125.280939,-136.395958,-135.873702,-135.816378,-135.733768,-135.615162,-135.716256,-135.715299,-135.714220,-135.712047,-135.643077,-135.167942,-135.676118,-135.674862,-135.673482,-135.670723,-135.584380,-134.861495,-134.103955
74,-125.399075,-136.780998,-135.992397,-135.932267,-135.846369,-135.727166,-135.837054,-135.836111,-135.835049,-135.832903,-135.764809,-135.296513,-135.793506,-135.792289,-135.790933,-135.788212,-135.703347,-135.002820,-134.258096
75,-125.515644,-137.166913,-136.109482,-136.046417,-135.957117,-135.837447,-135.956254,-135.955329,-135.954278,-135.952167,-135.884899,-135.423194,-135.909465,-135.908246,-135.906965,-135.904262,-135.820817,-135.141945,-134.409963
76,-125.630670,-137.553819,-136.225026,-136.158921,-136.066135,-135.946097,-136.073909,-136.072994,-136.071951,-136.069862,-136.003400,-135.548039,-136.024016,-136.022869,-136.021521,-136.018901,-135.936845,-135.278920,-134.558764
77,-125.744197,-137.941897,-136.339080,-136.269796,-136.173441,-136.052998,-136.190033,-136.189132,-136.188112,-136.186051,-136.120343,-135.671026,-136.137211,-136.136030,-136.134730,-136.132152,-136.051404,-135.413825,-134.705443
78,-125.856259,-138.334338,-136.451864,-136.379319,-136.279322,-136.158637,-136.304688,-136.303793,-136.302780,-136.300754,-136.235784,-135.792408,-136.249001,-136.247864,-136.246624,-136.244048,-136.164597,-135.546725,-134.849736
79,-125.966878,-138.732541,-136.550128,-136.487599,-136.383818,-136.263111,-136.417900,-136.417016,-136.416012,-136.414007,-136.349742,-135.912073,-136.359498,-136.358384,-136.357150,-136.354631,-136.276384,-135.677662,-134.991792
80,-126.076126,-139.140758,-136.621412,-136.595035,-136.487437,-136.366812,-136.529700,-136.528829,-136.527839,-136.525862,-136.462269,-136.030062,-136.468719,-136.467617,-136.466385,-136.463924,-136.386896,-135.800072,-135.131628
81,-126.183999,-139.567327,-136.668057,-136.702547,-136.591091,-136.470773,-136.640121,-136.639266,-136.638293,-136.636329,-136.573384,-136.146493,-136.576681,-136.575592,-136.574395,-136.571953,-136.496055,-135.919219,-135.269321
82,-126.290615,-139.995773,-136.690133,-136.808746,-136.693488,-136.573632,-136.749223,-136.748377,-136.747413,-136.745469,-136.683145,-136.261310,-136.683385,-136.682309,-136.681112,-136.678737,-136.603959,-136.036777,-135.404970
83,-126.395821,-140.415994,-136.691636,-136.912883,-136.793621,-136.674289,-136.857002,-136.856168,-136.855216,-136.853298,-136.791568,-136.374695,-136.788878,-136.787839,-136.786663,-136.784326,-136.710598,-136.152768,-135.538524
84,-126.499854,-140.844314,-136.745084,-137.016168,-136.892914,-136.774335,-136.963514,-136.962694,-136.961747,-136.959851,-136.898696,-136.486504,-136.893245,-136.892176,-136.891021,-136.888637,-136.816011,-136.267255,-135.670163
