300MHz / Lb(0.01) dB
,h2(m),1000,1000,1000,1000,1000,10000,10000,10000,10000,10000,10000,20000,20000,20000,20000,20000,20000,20000
,h1(m),1.5,15,30,60,1000,1.5,15,30,60,1000,10000,1.5,15,30,60,1000,10000,20000
D (km),FSL
0,81.979386,76.541616,76.423366,76.290062,76.017155,-0.000000,96.555511,96.543763,96.530690,96.504486,95.640706,-0.000000,102.576763,102.570885,102.564348,102.551261,102.130928,96.553696,-0.000000
1,84.996485,79.079160,79.070851,79.061316,79.041727,78.777029,96.591442,96.588476,96.585163,96.578478,96.325162,81.433724,102.586027,102.584520,102.582840,102.579467,102.463763,99.616999,81.617767
2,88.979768,82.628231,82.630159,82.631978,82.636584,83.198606,96.694329,96.691533,96.688411,96.682128,96.445302,87.184376,102.612207,102.610732,102.609089,102.605784,102.492471,99.719091,87.466831
3,91.991655,85.442209,85.443808,85.445724,85.449753,85.941768,96.859754,96.857198,96.854363,96.848625,96.635712,90.334266,102.655363,102.653937,102.652342,102.649138,102.539159,99.876294,90.861390
4,94.296739,87.637929,87.640059,87.642628,87.647860,88.033224,97.079984,97.077716,97.075213,97.070138,96.883284,92.500813,102.714886,102.713506,102.711977,102.708891,102.603085,100.083416,93.214809
5,96.142151,89.414740,89.417070,89.419605,89.424918,89.727876,97.346003,97.344041,97.341882,97.337495,97.177743,94.107079,102.789970,102.788658,102.787196,102.784251,102.683301,100.331260,94.948678
6,97.674620,90.903765,90.902770,90.905160,90.910093,91.155379,97.649154,97.647348,97.645330,97.641360,97.508100,95.377324,102.879681,102.878440,102.877048,102.874270,102.778711,100.610499,96.363213
7,98.982492,92.508449,92.176898,92.179173,92.183778,92.395826,97.980936,97.979430,97.977741,97.974379,97.864235,96.429357,102.982982,102.981814,102.980510,102.977887,102.888117,100.912470,97.540654
8,100.121957,94.326312,93.291070,93.293242,93.297427,93.483714,98.332580,98.331341,98.329961,98.327209,98.237491,97.308720,103.098746,103.097656,103.096441,103.093994,103.010255,101.229814,98.525808
9,101.131014,96.200706,94.280564,94.282484,94.286377,94.452051,98.697357,98.696335,98.695235,98.692995,98.620922,98.080576,103.225849,103.224833,103.223700,103.221440,103.143824,101.545707,99.378011
10,102.036168,97.993079,95.170066,95.171830,95.175506,95.324427,99.069702,99.068906,99.068048,99.066254,99.009078,98.750480,103.363113,103.362178,103.361133,103.359051,103.287556,101.861462,100.127894
11,102.856576,99.613039,95.978341,95.980597,95.984923,96.118043,99.445257,99.444618,99.443944,99.442601,99.397787,99.361075,103.509454,103.508568,103.507606,103.505685,103.440213,102.178103,100.798304
12,103.606647,101.022958,96.718107,96.720324,96.724650,96.845831,99.820577,99.820104,99.819573,99.818569,99.785896,99.907644,103.664481,103.663618,103.662653,103.660708,103.600612,102.493056,101.393076
13,104.297471,102.216872,97.400329,97.402582,97.406893,97.517804,100.193038,100.192723,100.192359,100.191661,100.169036,100.407937,103.826405,103.825618,103.824742,103.822963,103.767630,102.804447,101.940870
14,104.937671,103.211922,98.033292,98.035544,98.039905,98.141895,100.560800,100.560602,100.560365,100.559853,100.545670,100.875743,103.994236,103.993511,103.992707,103.991086,103.940235,103.102803,102.439171
15,105.534089,104.041413,98.623536,98.625866,98.630333,98.724403,100.922543,100.922372,100.922210,100.921867,100.914642,101.314429,104.167009,104.166354,104.165618,104.164158,104.117486,103.391131,102.891621
16,106.092337,104.738488,99.176504,99.178948,99.183446,99.270561,101.277036,101.277079,101.276899,101.276795,101.275277,101.717754,104.343889,104.343290,104.342631,104.341301,104.298486,103.673697,103.315864
17,106.617004,105.325537,99.696617,99.699131,99.703800,99.784605,101.623854,101.623917,101.623971,101.623853,101.627185,102.100844,104.524060,104.523530,104.522933,104.521744,104.482465,103.950273,103.715412
18,107.111872,106.107277,100.187518,100.190144,100.195007,100.270028,101.962696,101.962775,101.962842,101.963039,101.970075,102.465990,104.706831,104.706358,104.705823,104.704758,104.669512,104.220687,104.080948
19,107.580125,107.014296,100.652325,100.655095,100.660153,100.729902,102.293234,102.293336,102.293450,102.293664,102.304076,102.815050,104.891546,104.891125,104.890644,104.889702,104.858376,104.484932,104.422835
20,108.024500,107.881477,101.093757,101.096557,101.101844,101.183542,102.615495,102.615530,102.615941,102.616049,102.628999,103.149669,105.077633,105.077256,105.076832,105.075984,105.048270,104.738259,104.748383
21,108.447274,108.712105,101.513793,101.516862,101.522364,101.601212,102.932105,102.932163,102.932082,102.931876,102.945190,103.468674,105.264588,105.264243,105.263866,105.263111,105.238711,104.982784,105.059221
22,108.850468,109.509213,101.914606,101.917830,101.923619,101.999973,103.241017,103.240958,103.240886,103.240794,103.252802,103.774585,105.451924,105.451619,105.451296,105.450632,105.429268,105.221807,105.356721
23,109.235810,110.275431,102.297777,102.301158,102.307224,102.381520,103.541555,103.541546,103.541533,103.541480,103.552033,104.069782,105.639264,105.639011,105.638712,105.638138,105.619567,105.455494,105.633468
24,109.604823,111.013092,102.664760,102.668328,102.674669,102.747273,103.834105,103.834134,103.834144,103.834191,103.843265,104.355117,105.826253,105.826024,105.825782,105.825281,105.809265,105.684019,105.896577
25,109.958815,111.724124,103.016731,103.020524,103.027124,103.098476,104.118959,104.119004,104.119046,104.119142,104.126619,104.631250,106.012627,106.012409,106.012196,106.011782,105.998094,105.907579,106.150164
26,110.298947,112.410081,103.354790,103.358757,103.365556,103.436273,104.396339,104.396413,104.396472,104.396613,104.403852,104.898872,106.198036,106.197847,106.197684,106.197306,106.185763,106.126324,106.395050
27,110.626296,113.072067,103.679705,103.683855,103.690713,103.761608,104.666520,104.666602,104.666673,104.666866,104.675338,105.158557,106.382327,106.382196,106.382043,106.381745,106.372124,106.340412,106.631900
28,110.941749,113.710175,103.992026,103.996281,104.003151,104.075418,104.929746,104.929849,104.929945,104.930191,104.939718,105.410801,106.565310,106.565174,106.565086,106.564797,106.557004,106.549630,106.861318
29,111.246202,114.323536,104.292067,104.296474,104.303530,104.378498,105.186310,105.186418,105.186552,105.186819,105.197216,105.655986,106.746803,106.746714,106.746498,106.746371,106.740172,106.752415,107.083854
30,111.540314,114.910450,104.580167,104.585051,104.593033,104.671497,105.436473,105.436596,105.436737,105.437004,105.448189,105.894608,106.926662,106.926584,106.926553,106.926321,106.921596,106.951167,107.294616
31,111.824825,115.471718,104.857398,104.863241,104.872759,104.955152,105.680507,105.680625,105.680752,105.681063,105.692861,106.128072,107.104852,107.104790,107.104689,107.104433,107.101154,107.146064,107.498430
32,112.100309,116.011418,105.125017,105.132182,105.143577,105.229992,105.918570,105.918695,105.918838,105.919187,105.931495,106.355812,107.281075,107.281023,107.280970,107.280901,107.278840,107.337203,107.696918
33,112.367349,116.534033,105.384062,105.392696,105.406000,105.496539,106.150953,106.151115,106.151272,106.151632,106.164382,106.577866,107.455453,107.455486,107.455420,107.455350,107.454372,107.524721,107.890443
34,112.626407,117.041916,105.635128,105.645236,105.660456,105.755302,106.377934,106.378074,106.378257,106.378603,106.391700,106.794270,107.627938,107.627884,107.627876,107.627959,107.627863,107.708777,108.079266
35,112.877975,117.536138,105.878610,105.890202,105.907314,106.006711,106.599629,106.599795,106.600000,106.600355,106.613755,107.005895,107.798366,107.798437,107.798412,107.798456,107.799349,107.889438,108.263659
36,113.122466,118.017162,106.114788,106.127896,106.146937,106.251167,106.816320,106.816486,106.816670,106.817060,106.830690,107.212374,107.966788,107.966829,107.966895,107.966898,107.968610,108.066896,108.443895
37,113.360275,118.485360,106.343991,106.358647,106.379663,106.489052,107.028174,107.028352,107.028523,107.028937,107.042741,107.414376,108.133163,108.133246,108.133170,108.133211,108.135942,108.241142,108.620160
38,113.591750,118.941071,106.566412,106.582687,106.605743,106.720693,107.235395,107.235575,107.235789,107.236169,107.250096,107.611713,108.297501,108.297549,108.297532,108.297608,108.300924,108.412376,108.792689
39,113.817198,119.384633,106.782360,106.800315,106.825522,106.946416,107.438160,107.438310,107.438518,107.438928,107.452968,107.804986,108.460176,108.460086,108.459965,108.459873,108.463831,108.580664,108.961643
40,114.036977,119.816552,106.992040,107.011759,107.039223,107.166527,107.636601,107.636776,107.636988,107.637390,107.651504,107.994153,108.622049,108.621967,108.621850,108.621671,108.624589,108.746083,109.126476
41,114.251335,120.237162,107.195702,107.217315,107.247096,107.381211,107.830939,107.831105,107.831311,107.831748,107.845879,108.179406,108.781755,108.781682,108.781659,108.781468,108.783192,108.908745,109.286802
42,114.460527,120.646853,107.393509,107.417075,107.449402,107.590794,108.021270,108.021459,108.021669,108.022075,108.036223,108.361036,108.939409,108.939346,108.939257,108.939144,108.939743,109.068760,109.444132
43,114.664789,121.046009,107.585679,107.611325,107.646261,107.795498,108.207781,108.207983,108.208162,108.208627,108.222730,108.538773,109.094944,109.094892,109.094855,109.094774,109.094232,109.226777,109.598591
44,114.864368,121.435061,107.772379,107.800228,107.837977,107.995538,108.390622,108.390820,108.391026,108.391452,108.405535,108.713211,109.248396,109.248381,109.248314,109.248212,109.246630,109.382662,109.750281
45,115.059476,121.814392,107.953762,107.983951,108.024592,108.191083,108.569906,108.570109,108.570304,108.570786,108.584768,108.884247,109.399832,109.399756,109.399758,109.399709,109.398003,109.535707,109.899364
46,115.250284,122.184313,108.129988,108.162637,108.206373,108.382337,108.745762,108.745956,108.746199,108.746584,108.760548,109.052184,109.549223,109.549199,109.549172,109.549116,109.547952,109.686405,110.045835
47,115.437010,122.545249,108.301177,108.336438,108.383442,108.569468,108.918305,108.918498,108.918711,108.919129,108.933020,109.216975,109.696637,109.696617,109.696561,109.696554,109.695914,109.834937,110.189897
48,115.619775,122.897428,108.467451,108.505492,108.555926,108.752646,109.087668,109.087855,109.088074,109.088493,109.102289,109.378826,109.842094,109.842067,109.842049,109.842027,109.841860,109.981155,110.331607
49,115.798797,123.241272,108.628947,108.669907,108.723971,108.932010,109.253939,109.254129,109.254321,109.254774,109.268438,109.537729,109.985594,109.985586,109.985582,109.985563,109.985832,110.125245,110.471089
50,115.974209,123.577075,108.785757,108.829793,108.887667,109.107728,109.417231,109.417417,109.417633,109.418042,109.431626,109.693892,110.127211,110.127211,110.127208,110.127207,110.127867,110.266975,110.608302
51,116.146146,123.905143,108.937976,108.985270,109.047184,109.279883,109.577655,109.577846,109.578041,109.578463,109.591918,109.847349,110.266959,110.266966,110.266969,110.266987,110.268016,110.406720,110.743454
52,116.314758,124.225807,109.094978,109.136396,109.202498,109.448646,109.735281,109.735470,109.735677,109.736089,109.749445,109.998234,110.404872,110.404883,110.404889,110.404927,110.406299,110.544427,110.876576
53,116.480138,124.539267,109.264691,109.283336,109.353833,109.614147,109.890223,109.890404,109.890618,109.891020,109.904222,110.146593,110.540977,110.541001,110.541019,110.541054,110.542747,110.680235,111.007692
54,116.642439,124.845878,109.445479,109.425999,109.501170,109.776382,110.042560,110.042745,110.042940,110.043351,110.056410,110.292517,110.675324,110.675348,110.675379,110.675413,110.677400,110.814280,111.136895
55,116.801787,125.145935,109.635934,109.564627,109.644696,109.935572,110.192357,110.192547,110.192752,110.193156,110.206074,110.436095,110.807932,110.807966,110.807992,110.808044,110.810303,110.945960,111.264511
56,116.958197,125.439476,109.834829,109.699221,109.784380,110.091790,110.340019,110.339923,110.340116,110.340513,110.353291,110.578259,110.938854,110.938883,110.938912,110.938978,110.941473,111.076085,111.389777
57,117.111951,125.727181,110.040985,109.829842,109.920358,110.245090,110.491650,110.484916,110.485119,110.485509,110.498130,110.718973,111.068089,111.068124,111.068165,111.068234,111.070955,111.204387,111.513659
58,117.262917,126.008736,110.253450,109.956547,110.052656,110.395588,110.649101,110.627614,110.627811,110.628199,110.640671,110.857477,111.195698,111.195724,111.195773,111.195855,111.198790,111.330961,111.635674
59,117.411353,126.284785,110.471260,110.079392,110.181278,110.543359,110.811692,110.768088,110.768302,110.768669,110.780982,110.993849,111.321692,111.321734,111.321783,111.321868,111.324989,111.455930,111.756742
60,117.557308,126.555462,110.696178,110.198444,110.306403,110.688480,110.978845,110.906390,110.906587,110.906986,110.919142,111.128142,111.446120,111.446165,111.446209,111.446308,111.449606,111.579198,111.876375
61,117.700840,126.820926,110.937324,110.313666,110.428093,110.831041,111.149992,111.042608,111.042802,111.043183,111.055184,111.260424,111.568998,111.569048,111.569105,111.569205,111.572663,111.700833,111.994399
62,117.842030,127.081402,111.182213,110.425179,110.546155,110.971028,111.324682,111.176777,111.176976,111.177358,111.189212,111.390739,111.690384,111.690439,111.690486,111.690583,111.694221,111.820939,112.110671
63,117.980968,127.337138,111.429907,110.532984,110.660803,111.108593,111.502514,111.308977,111.309177,111.309547,111.321234,111.519170,111.810275,111.810321,111.810427,111.810491,111.814237,111.939482,112.225496
64,118.117721,127.588332,111.679552,110.637136,110.772125,111.243767,111.683082,111.439254,111.439445,111.439832,111.451345,111.645739,111.928713,111.928768,111.928852,111.928944,111.932815,112.056546,112.338961
65,118.252414,127.835339,111.932931,110.737672,110.880090,111.376595,111.866083,111.567656,111.567843,111.568216,111.579587,111.770518,112.045739,112.045796,112.045875,112.045966,112.049950,112.172144,112.451050
66,118.384940,128.077901,112.187630,110.834536,110.984648,111.507141,112.051216,111.694240,111.694428,111.694798,111.706010,111.893549,112.161366,112.161428,112.161522,112.161606,112.165696,112.286321,112.561656
67,118.515522,128.316644,112.441295,110.927844,111.085933,111.635453,112.238220,111.819066,111.819251,111.819607,111.830656,112.014873,112.275635,112.275712,112.275749,112.275885,112.280048,112.399081,112.671091
68,118.644219,128.551767,112.692376,111.017631,111.183941,111.761591,112.432412,111.942162,111.942348,111.942706,111.953592,112.134551,112.388554,112.388609,112.388684,112.388811,112.393072,112.510524,112.779021
69,118.770956,128.783099,112.933684,111.103856,111.278709,111.885574,112.630756,112.063578,112.063769,112.064122,112.074843,112.252597,112.500186,112.500203,112.500299,112.500439,112.504775,112.620606,112.885665
70,118.895906,129.011160,113.170323,111.186534,111.370231,112.007453,112.830702,112.183374,112.183557,112.183914,112.194471,112.369087,112.610504,112.610562,112.610632,112.610761,112.615164,112.729387,112.991106
71,119.019082,129.236033,113.400874,111.265783,111.458582,112.127270,113.032045,112.301572,112.301752,112.302103,112.312515,112.484051,112.719588,112.719647,112.719731,112.719832,112.724293,112.836907,113.095439
72,119.140536,129.457914,113.611897,111.341504,111.543663,112.245096,113.234561,112.418235,112.418407,112.418754,112.428999,112.597549,112.827406,112.827471,112.827543,112.827678,112.832183,112.943177,113.198418
73,119.260325,129.677016,113.812749,111.413792,111.625652,112.360882,113.438139,112.533378,112.533556,112.533897,112.543992,112.709545,112.934043,112.934093,112.934165,112.934308,112.938860,113.048227,113.300228
74,119.378473,129.893467,114.003717,111.482669,111.704499,112.474725,113.642596,112.647048,112.647227,112.647562,112.657505,112.820140,113.039470,113.039537,113.039610,113.039744,113.044336,113.152090,113.400963
75,119.495053,130.107544,114.167669,111.548094,111.780150,112.586648,113.847804,112.759288,112.759463,112.759801,112.769581,112.929351,113.143747,113.143791,113.143919,113.144027,113.148647,113.254790,113.500817
76,119.610072,130.319335,114.319702,111.610137,111.852714,112.696725,114.053645,112.870132,112.870299,112.870630,112.880262,113.037212,113.246888,113.246986,113.247022,113.247170,113.251832,113.356335,113.599121
77,119.723620,130.529178,114.455714,111.668806,111.922186,112.804822,114.262160,112.979602,112.979777,112.980106,112.989574,113.143681,113.348930,113.348977,113.349040,113.349189,113.353858,113.456767,113.696599
78,119.835646,130.736996,114.566847,111.724135,111.988612,112.911165,114.471233,113.087741,113.087909,113.088243,113.097562,113.248986,113.449822,113.449894,113.449996,113.450105,113.454813,113.556113,113.792964
79,119.946343,130.943464,114.665480,111.778612,112.051874,113.015699,114.680628,113.194581,113.194745,113.195073,113.204242,113.353011,113.549664,113.549740,113.549830,113.549957,113.554648,113.654383,113.888349
80,120.055515,131.148058,114.744067,111.843675,112.112106,113.118393,114.890300,113.300147,113.300311,113.300641,113.309658,113.455761,113.648463,113.648535,113.648608,113.648756,113.653485,113.752541,113.982718
81,120.163429,131.351709,114.804958,111.919715,112.169320,113.219321,115.100120,113.404467,113.404635,113.404953,113.413822,113.557351,113.746232,113.746300,113.746391,113.746519,113.751237,113.849867,114.076085
82,120.269960,131.554116,114.939004,112.005681,112.223518,113.318509,115.310014,113.507586,113.507751,113.508064,113.516788,113.657706,113.842961,113.843027,113.843097,113.843260,113.847989,113.946161,114.168559
83,120.375235,131.755800,115.095553,112.100451,112.274687,113.415949,115.519911,113.609507,113.609672,113.609988,113.618563,113.756989,113.938691,113.938779,113.938854,113.939019,113.943727,114.041427,114.259995
84,120.479237,131.958501,115.244404,112.203207,112.322879,113.511686,115.727138,113.710279,113.710438,113.710752,113.719187,113.855052,114.033501,114.033542,114.033623,114.033706,114.038476,114.135705,114.350567
85,120.582019,132.171936,115.386920,112.383391,112.368053,113.605707,115.932832,113.809913,113.810068,113.810377,113.818685,113.952074,114.127287,114.127360,114.127441,114.127586,114.132317,114.229007,114.440214
86,120.683594,132.382218,115.518794,112.580394,112.410329,113.698057,116.138288,113.908431,113.908598,113.908909,113.917064,114.048030,114.220157,114.220227,114.220310,114.220461,114.225125,114.321351,114.528994
87,120.783993,132.589403,115.647338,112.800183,112.449638,113.788728,116.343428,114.005872,114.006031,114.006333,114.014344,114.142866,114.312106,114.312203,114.312261,114.312420,114.317075,114.412753,114.616858
88,120.883237,132.793523,115.769924,113.030415,112.486006,113.877784,116.548211,114.102250,114.102403,114.102705,114.110579,114.236731,114.403135,114.403257,114.403290,114.403460,114.408095,114.503225,114.703904
89,120.981380,132.994726,115.886894,113.273449,112.590714,113.965109,116.752632,114.197583,114.197749,114.198043,114.205783,114.329565,114.493323,114.493385,114.493515,114.493590,114.498215,114.592815,114.790097
90,121.078417,133.192952,115.997734,113.548813,112.695195,114.050850,116.956500,114.291909,114.292068,114.292362,114.299972,114.421408,114.582555,114.582637,114.582715,114.582873,114.587493,114.681524,114.875444
91,121.174381,133.388283,116.102242,113.834934,112.798772,114.134979,117.152349,114.385226,114.385387,114.385685,114.393143,114.512279,114.670961,114.671067,114.671128,114.671300,114.675860,114.769354,114.960010
92,121.269295,133.580762,116.202486,114.127250,112.901542,114.217497,117.346780,114.478089,114.478762,114.480045,114.485362,114.602199,114.758536,114.758626,114.758693,114.758863,114.763403,114.856347,115.043759
93,121.363187,133.770459,116.299545,114.424318,113.003870,114.298361,117.540431,114.569497,114.570173,114.571509,114.576618,114.691205,114.845287,114.845324,114.845443,114.845593,114.850122,114.942483,115.126746
