300MHz / Lb(0.50) dB
,h2(m),1000,1000,1000,1000,1000,10000,10000,10000,10000,10000,10000,20000,20000,20000,20000,20000,20000,20000
,h1(m),1.5,15,30,60,1000,1.5,15,30,60,1000,10000,1.5,15,30,60,1000,10000,20000
D (km),FSL
0,82,82,81.9,81.7,81.5,0,102,102,102,101.9,101.1,0,108,108,108,108,107.6,102,0
1,85,85,84.9,84.9,84.7,82,102,102,102,102,101.1,82,108,108,108,108,107.6,102,82
2,89,89,89,88.9,88.9,88,102.2,102.2,102.1,102.1,101.3,88,108.1,108.1,108,108,107.6,102.2,88
3,92,92,92,92,91.9,91.5,102.4,102.4,102.3,102.3,101.5,91.5,108.1,108.1,108.1,108.1,107.7,102.4,91.6
4,94.3,94.3,94.3,94.3,94.3,94,102.6,102.6,102.6,102.6,101.9,94,108.2,108.2,108.2,108.2,107.8,102.6,94.1
5,96.1,96.1,96.1,96.1,96.1,96,103,103,102.9,102.9,102.2,96,108.3,108.3,108.3,108.3,107.9,103,96
6,97.7,97.7,97.7,97.7,97.7,97.6,103.3,103.3,103.3,103.3,102.7,97.6,108.4,108.4,108.4,108.4,108,103.3,97.6
7,99,99,99,99,99,98.9,103.7,103.7,103.7,103.7,103.1,98.9,108.5,108.5,108.5,108.5,108.1,103.7,98.9
8,100.1,100.1,100.1,100.1,100.1,100.1,104.1,104.1,104.1,104.1,103.6,100.1,108.7,108.7,108.7,108.6,108.3,104.1,100.1
9,101.1,101.1,101.1,101.1,101.1,101.1,104.6,104.6,104.6,104.5,104.1,101.1,108.8,108.8,108.8,108.8,108.5,104.6,101.1
10,102,102,102,102,102,102,105,105,105,105,104.6,102,109,109,109,109,108.6,105,102
11,102.9,102.9,102.9,102.9,102.9,102.8,105.4,105.4,105.4,105.4,105.1,102.8,109.2,109.2,109.2,109.1,108.8,105.4,102.8
12,103.6,103.6,103.6,103.6,103.6,103.6,105.9,105.9,105.9,105.9,105.5,103.6,109.4,109.4,109.3,109.3,109,105.9,103.6
13,104.3,104.3,104.3,104.3,104.3,104.3,106.3,106.3,106.3,106.3,106,104.3,109.6,109.5,109.5,109.5,109.2,106.3,104.3
14,104.9,105,105,104.9,104.9,104.9,106.7,106.7,106.7,106.7,106.4,104.9,109.8,109.7,109.7,109.7,109.5,106.7,104.9
15,105.5,105.5,105.5,105.5,105.5,105.5,107.1,107.1,107.1,107.1,106.9,105.5,110,110,110,109.9,109.7,107.1,105.5
16,106.1,106.1,106.1,106.1,106.1,106.1,107.5,107.5,107.5,107.5,107.3,106.1,110.2,110.2,110.2,110.2,109.9,107.5,106.1
17,106.6,106.6,106.6,106.6,106.6,106.6,107.9,107.9,107.9,107.9,107.7,106.6,110.4,110.4,110.4,110.4,110.1,107.9,106.6
18,107.1,107.4,107.1,107.1,107.1,107.1,108.3,108.3,108.3,108.3,108.1,107.1,110.6,110.6,110.6,110.6,110.4,108.3,107.1
19,107.6,108.3,107.6,107.6,107.6,107.6,108.6,108.6,108.6,108.6,108.5,107.6,110.8,110.8,110.8,110.8,110.6,108.6,107.6
20,108,109.2,108,108,108,108,109,109,109,109,108.8,108,111,111,111,111,110.8,109,108
21,108.4,110,108.5,108.5,108.5,108.5,109.3,109.3,109.3,109.3,109.2,108.4,111.3,111.2,111.2,111.2,111,109.3,108.5
22,108.9,110.8,108.9,108.9,108.9,108.9,109.7,109.7,109.7,109.7,109.5,108.9,111.5,111.5,111.5,111.5,111.3,109.7,108.9
23,109.2,111.6,109.3,109.3,109.3,109.2,110,110,110,110,109.9,109.2,111.7,111.7,111.7,111.7,111.5,110,109.3
24,109.6,112.3,109.6,109.6,109.6,109.6,110.3,110.3,110.3,110.3,110.2,109.6,111.9,111.9,111.9,111.9,111.7,110.3,109.6
25,110,113,110,110,110,110,110.6,110.6,110.6,110.6,110.5,110,112.1,112.1,112.1,112.1,111.9,110.6,110
26,110.3,113.7,110.3,110.3,110.3,110.3,110.9,110.9,110.9,110.9,110.8,110.3,112.3,112.3,112.3,112.3,112.2,110.9,110.3
27,110.6,114.4,110.6,110.6,110.6,110.6,111.2,111.2,111.2,111.2,111.1,110.6,112.5,112.5,112.5,112.5,112.4,111.2,110.6
28,110.9,115,111,111,111,111,111.5,111.5,111.5,111.5,111.4,110.9,112.7,112.7,112.7,112.7,112.6,111.5,111
29,111.2,115.7,111.3,111.3,111.3,111.3,111.7,111.7,111.7,111.7,111.7,111.3,112.9,112.9,112.9,112.9,112.8,111.7,111.3
30,111.5,116.3,111.6,111.6,111.6,111.6,112,112,112,112,111.9,111.5,113.1,113.1,113.1,113.1,113,112,111.6
31,111.8,116.9,111.8,111.8,111.8,111.8,112.3,112.3,112.3,112.3,112.2,111.8,113.3,113.3,113.3,113.3,113.2,112.3,111.8
32,112.1,117.4,112.1,112.1,112.1,112.1,112.5,112.5,112.5,112.5,112.4,112.1,113.5,113.5,113.5,113.5,113.4,112.5,112.1
33,112.4,118,112.4,112.4,112.4,112.4,112.8,112.8,112.8,112.8,112.7,112.4,113.7,113.7,113.7,113.7,113.6,112.8,112.4
34,112.6,118.5,112.6,112.6,112.6,112.6,113,113,113,113,112.9,112.6,113.9,113.9,113.9,113.9,113.8,113,112.6
35,112.9,119.1,112.9,112.9,112.9,112.9,113.2,113.2,113.2,113.2,113.2,112.9,114.1,114.1,114.1,114.1,114,113.2,112.9
36,113.1,119.6,113.1,113.1,113.1,113.1,113.5,113.5,113.5,113.5,113.4,113.1,114.3,114.3,114.3,114.3,114.2,113.5,113.1
37,113.4,120.1,113.4,113.4,113.4,113.4,113.7,113.7,113.7,113.7,113.6,113.4,114.5,114.5,114.5,114.5,114.4,113.7,113.4
38,113.6,120.6,113.6,113.6,113.6,113.6,113.9,113.9,113.9,113.9,113.8,113.6,114.7,114.7,114.7,114.7,114.6,113.9,113.6
39,113.8,121.1,113.8,113.8,113.8,113.8,114.1,114.1,114.1,114.1,114.1,113.8,114.8,114.8,114.8,114.8,114.8,114.1,113.8
40,114,121.5,114,114,114,114.1,114.3,114.3,114.3,114.3,114.3,114,115,115,115,115,114.9,114.3,114.1
41,114.3,122,114.3,114.3,114.3,114.3,114.5,114.5,114.5,114.5,114.5,114.3,115.2,115.2,115.2,115.2,115.1,114.5,114.3
42,114.5,122.5,114.5,114.5,114.5,114.5,114.7,114.7,114.7,114.7,114.7,114.5,115.4,115.4,115.4,115.4,115.3,114.7,114.5
43,114.7,122.9,114.7,114.7,114.7,114.7,114.9,114.9,114.9,114.9,114.9,114.7,115.5,115.5,115.5,115.5,115.5,114.9,114.7
44,114.9,123.4,114.9,114.9,114.9,114.9,115.1,115.1,115.1,115.1,115.1,114.9,115.7,115.7,115.7,115.7,115.6,115.1,114.9
45,115.1,123.8,115.1,115.1,115.1,115.1,115.3,115.3,115.3,115.3,115.2,115.1,115.9,115.9,115.9,115.9,115.8,115.3,115.1
46,115.3,124.2,115.2,115.3,115.3,115.3,115.5,115.5,115.5,115.5,115.4,115.3,116,116,116,116,115.9,115.5,115.3
47,115.4,124.6,115.4,115.4,115.4,115.5,115.6,115.6,115.6,115.6,115.6,115.4,116.2,116.2,116.2,116.2,116.1,115.6,115.5
48,115.6,125.1,115.6,115.6,115.6,115.6,115.8,115.8,115.8,115.8,115.8,115.6,116.3,116.3,116.3,116.3,116.3,115.8,115.6
49,115.8,125.5,115.8,115.8,115.8,115.8,116,116,116,116,116,115.8,116.5,116.5,116.5,116.5,116.4,116,115.8
50,116,125.9,116,116,116,116,116.2,116.2,116.2,116.2,116.1,116,116.6,116.6,116.6,116.6,116.6,116.2,116
51,116.1,126.3,116.1,116.1,116.1,116.2,116.3,116.3,116.3,116.3,116.3,116.2,116.8,116.8,116.8,116.8,116.7,116.3,116.2
52,116.3,126.7,116.3,116.3,116.3,116.3,116.5,116.5,116.5,116.5,116.5,116.3,116.9,116.9,116.9,116.9,116.9,116.5,116.3
53,116.5,127.1,116.5,116.5,116.5,116.5,116.7,116.7,116.7,116.7,116.6,116.5,117.1,117.1,117.1,117.1,117,116.6,116.5
54,116.6,127.4,116.6,116.6,116.6,116.7,116.8,116.8,116.8,116.8,116.8,116.7,117.2,117.2,117.2,117.2,117.2,116.8,116.7
55,116.8,127.8,116.8,116.8,116.8,116.8,117,117,117,117,116.9,116.8,117.4,117.4,117.4,117.4,117.3,117,116.8
56,117,128.2,116.9,116.9,116.9,117,117.1,117.1,117.1,117.1,117.1,117,117.5,117.5,117.5,117.5,117.4,117.1,117
57,117.1,128.6,117.1,117.1,117.1,117.1,117.3,117.3,117.3,117.3,117.2,117.1,117.6,117.6,117.6,117.6,117.6,117.3,117.1
58,117.3,128.9,117.2,117.2,117.2,117.3,117.4,117.4,117.4,117.4,117.4,117.3,117.8,117.8,117.8,117.8,117.7,117.4,117.3
59,117.4,129.3,117.4,117.4,117.4,117.4,117.6,117.6,117.6,117.6,117.5,117.4,117.9,117.9,117.9,117.9,117.9,117.6,117.4
60,117.6,129.7,117.5,117.5,117.5,117.6,117.7,117.7,117.7,117.7,117.7,117.6,118,118,118,118,118,117.7,117.6
61,117.7,130,117.7,117.7,117.7,117.7,117.8,117.8,117.8,117.8,117.8,117.7,118.2,118.2,118.2,118.2,118.1,117.8,117.7
62,117.8,130.4,117.8,117.8,117.8,117.9,118,118,118,118,118,117.9,118.3,118.3,118.3,118.3,118.3,118,117.9
63,118,130.7,117.9,117.9,118,118,118.1,118.1,118.1,118.1,118.1,118,118.4,118.4,118.4,118.4,118.4,118.1,118
64,118.1,131.1,118.1,118.1,118.1,118.1,118.2,118.2,118.2,118.2,118.2,118.1,118.5,118.5,118.5,118.5,118.5,118.2,118.1
65,118.3,131.4,118.2,118.2,118.2,118.3,118.4,118.4,118.4,118.4,118.4,118.3,118.7,118.7,118.7,118.7,118.6,118.4,118.3
66,118.4,131.8,118.3,118.3,118.4,118.4,118.5,118.5,118.5,118.5,118.5,118.4,118.8,118.8,118.8,118.8,118.8,118.5,118.4
67,118.5,132.1,118.5,118.5,118.5,118.5,118.6,118.6,118.6,118.6,118.6,118.5,118.9,118.9,118.9,118.9,118.9,118.6,118.5
68,118.6,132.5,118.6,118.6,118.6,118.7,118.8,118.8,118.8,118.8,118.7,118.7,119,119,119,119,119,118.8,118.7
69,118.8,132.8,118.7,118.7,118.7,118.8,118.9,118.9,118.9,118.9,118.9,118.8,119.1,119.1,119.1,119.1,119.1,118.9,118.8
70,118.9,133.2,118.8,118.8,118.9,118.9,119,119,119,119,119,118.9,119.3,119.3,119.3,119.3,119.2,119,118.9
71,119,133.5,118.9,119,119,119,119.1,119.1,119.1,119.1,119.1,119,119.4,119.4,119.4,119.4,119.3,119.1,119
72,119.1,133.8,119.1,119.1,119.1,119.2,119.3,119.3,119.3,119.3,119.2,119.1,119.5,119.5,119.5,119.5,119.5,119.2,119.2
73,119.3,134.2,119.2,119.2,119.2,119.3,119.4,119.4,119.4,119.4,119.3,119.3,119.6,119.6,119.6,119.6,119.6,119.4,119.3
74,119.4,134.5,119.3,119.3,119.3,119.4,119.5,119.5,119.5,119.5,119.5,119.4,119.7,119.7,119.7,119.7,119.7,119.5,119.4
75,119.5,134.9,119.4,119.4,119.4,119.5,119.6,119.6,119.6,119.6,119.6,119.5,119.8,119.8,119.8,119.8,119.8,119.6,119.5
76,119.6,135.2,119.5,119.5,119.5,119.6,119.7,119.7,119.7,119.7,119.7,119.6,119.9,119.9,119.9,119.9,119.9,119.7,119.6
77,119.7,135.5,119.6,119.6,119.7,119.7,119.8,119.8,119.8,119.8,119.8,119.7,120,120,120,120,120,119.8,119.7
78,119.8,135.9,119.7,119.7,119.8,119.9,119.9,119.9,119.9,119.9,119.9,119.8,120.1,120.1,120.1,120.1,120.1,119.9,119.9
79,119.9,136.2,119.8,119.9,119.9,120,120,120,120,120,120,120,120.2,120.2,120.2,120.2,120.2,120,120
80,120.1,136.6,119.9,120,120,120.1,120.2,120.2,120.2,120.2,120.1,120.1,120.3,120.3,120.3,120.3,120.3,120.1,120.1
81,120.2,136.9,120,120.1,120.1,120.2,120.3,120.3,120.3,120.3,120.2,120.2,120.4,120.4,120.4,120.4,120.4,120.2,120.2
82,120.3,137.2,120.1,120.2,120.2,120.3,120.4,120.4,120.4,120.4,120.3,120.3,120.5,120.5,120.5,120.5,120.5,120.4,120.3
83,120.4,137.6,120.2,120.3,120.3,120.4,120.5,120.5,120.5,120.5,120.5,120.4,120.6,120.6,120.6,120.6,120.6,120.5,120.4
84,120.5,137.9,120.3,120.4,120.4,120.5,120.6,120.6,120.6,120.6,120.6,120.5,120.7,120.7,120.7,120.7,120.7,120.6,120.5
85,120.6,138.3,120.4,120.5,120.5,120.6,120.7,120.7,120.7,120.7,120.7,120.6,120.8,120.8,120.8,120.8,120.8,120.7,120.6
86,120.7,138.6,120.5,120.6,120.6,120.7,120.8,120.8,120.8,120.8,120.8,120.7,120.9,120.9,120.9,120.9,120.9,120.8,120.7
87,120.8,139,120.7,120.6,120.7,120.8,120.9,120.9,120.9,120.9,120.9,120.8,121,121,121,121,121,120.9,120.8
88,120.9,139.3,120.9,120.7,120.8,120.9,121,121,121,121,121,120.9,121.1,121.1,121.1,121.1,121.1,121,120.9
89,121,139.7,121,120.8,120.9,121,121.1,121.1,121.1,121.1,121.1,121,121.2,121.2,121.2,121.2,121.2,121.1,121
90,121.1,140.1,121.2,121,121,121.1,121.2,121.2,121.2,121.2,121.2,121.1,121.3,121.3,121.3,121.3,121.3,121.2,121.1
91,121.2,140.4,121.4,121.2,121,121.2,121.3,121.3,121.3,121.3,121.2,121.2,121.4,121.4,121.4,121.4,121.4,121.2,121.2
92,121.3,140.7,121.6,121.3,121.1,121.3,121.4,121.4,121.4,121.4,121.3,121.3,121.5,121.5,121.5,121.5,121.5,121.3,121.3
93,121.4,141.1,121.7,121.5,121.2,121.4,121.4,121.4,121.4,121.4,121.4,121.4,121.6,121.6,121.6,121.6,121.6,121.4,121.4
94,121.5,141.4,121.9,121.7,121.4,121.5,121.5,121.5,121.5,121.5,121.5,121.5,121.7,121.7,121.7,121.7,121.7,121.5,121.5
95,121.5,141.8,122.3,121.8,121.5,121.5,121.6,121.6,121.6,121.6,121.6,121.6,121.8,121.8,121.8,121.8,121.7,121.6,121.6
96,121.6,142.1,122.6,122,121.7,121.6,121.7,121.7,121.7,121.7,121.7,121.6,121.9,121.9,121.9,121.9,121.8,121.7,121.7
97,121.7,142.5,123,122.2,121.8,121.7,121.8,121.8,121.8,121.8,121.8,121.7,121.9,121.9,121.9,121.9,121.9,121.8,121.8
98,121.8,142.8,123.3,122.3,122,121.8,121.9,121.9,121.9,121.9,121.9,121.8,122,122,122,122,122,121.9,121.8
99,121.9,143.2,123.7,122.5,122.2,121.9,122,122,122,122,122,121.9,122.1,122.1,122.1,122.1,122.1,122,121.9
100,122,143.5,124.1,122.6,122.3,122,122.1,122.1,122.1,122.1,122.1,122,122.2,122.2,122.2,122.2,122.2,122.1,122
101,122.1,143.8,124.5,122.8,122.5,122.1,122.2,122.2,122.2,122.2,122.1,122.1,122.3,122.3,122.3,122.3,122.3,122.1,122.1
102,122.2,144.2,124.9,123,122.6,122.2,122.2,122.2,122.2,122.2,122.2,122.2,122.4,122.4,122.4,122.4,122.3,122.2,122.2
103,122.3,144.5,125.3,123.1,122.8,122.2,122.3,122.3,122.3,122.3,122.3,122.3,122.4,122.4,122.4,122.4,122.4,122.3,122.3
104,122.3,144.8,125.7,123.3,122.9,122.3,122.4,122.4,122.4,122.4,122.4,122.3,122.5,122.5,122.5,122.5,122.5,122.4,122.4
105,122.4,145.2,126.1,123.4,123.1,122.4,122.5,122.5,122.5,122.5,122.5,122.4,122.6,122.6,122.6,122.6,122.6,122.5,122.4
106,122.5,145.5,126.5,123.6,123.2,122.5,122.6,122.6,122.6,122.6,122.6,122.5,122.7,122.7,122.7,122.7,122.7,122.6,122.5
107,122.6,145.8,126.9,123.8,123.4,122.6,122.7,122.7,122.7,122.7,122.6,122.6,122.8,122.8,122.8,122.8,122.7,122.6,122.6
108,122.7,146.2,127.3,123.9,123.6,122.6,122.7,122.7,122.7,122.7,122.7,122.7,122.8,122.8,122.8,122.8,122.8,122.7,122.7
109,122.7,146.5,127.8,124.1,123.7,122.7,122.8,122.8,122.8,122.8,122.8,122.7,122.9,122.9,122.9,122.9,122.9,122.8,122.8
110,122.8,146.8,128.2,124.2,123.9,122.8,122.9,122.9,122.9,122.9,122.9,122.8,123,123,123,123,123,122.9,122.8
111,122.9,147.2,128.6,124.4,124,122.9,123,123,123,123,123,122.9,123.1,123.1,123.1,123.1,123.1,123,122.9
112,123,147.5,129.1,124.6,124.2,122.9,123.1,123.1,123.1,123.1,123,123,123.1,123.1,123.1,123.1,123.1,123,123
113,123.1,147.8,129.5,124.7,124.3,123,123.1,123.1,123.1,123.1,123.1,123.1,123.2,123.2,123.2,123.2,123.2,123.1,123.1
114,123.1,148.2,129.9,124.9,124.5,123.1,123.2,123.2,123.2,123.2,123.2,123.1,123.3,123.3,123.3,123.3,123.3,123.2,123.2
115,123.2,148.5,130.4,125,124.6,123.2,123.3,123.3,123.3,123.3,123.3,123.2,123.4,123.4,123.4,123.4,123.4,123.3,123.2
116,123.3,148.8,130.8,125.2,124.8,123.2,123.4,123.4,123.4,123.4,123.3,123.3,123.4,123.4,123.4,123.4,123.4,123.3,123.3
117,123.4,149.1,131.2,125.4,124.9,123.3,123.4,123.4,123.4,123.4,123.4,123.4,123.5,123.5,123.5,123.5,123.5,123.4,123.4
118,123.4,149.4,131.5,125.8,125.1,123.4,123.5,123.5,123.5,123.5,123.5,123.4,123.6,123.6,123.6,123.6,123.6,123.5,123.5
119,123.5,149.8,131.9,126.3,125.2,123.5,123.6,123.6,123.6,123.6,123.6,123.5,123.7,123.7,123.7,123.7,123.6,123.6,123.5
120,123.6,150.1,132.3,126.7,125.4,123.5,123.7,123.7,123.7,123.7,123.6,123.6,123.7,123.7,123.7,123.7,123.7,123.6,123.6
121,123.6,150.4,132.7,127.2,125.5,123.6,123.7,123.7,123.7,123.7,123.7,123.6,123.8,123.8,123.8,123.8,123.8,123.7,123.7
122,123.7,150.7,133,127.6,125.7,123.7,123.8,123.8,123.8,123.8,123.8,123.7,123.9,123.9,123.9,123.9,123.9,123.8,123.7
123,123.8,151.1,133.4,128,125.9,123.7,123.9,123.9,123.9,123.9,123.9,123.8,123.9,123.9,123.9,123.9,123.9,123.8,123.8
124,123.9,151.4,133.8,128.4,126,123.8,123.9,123.9,123.9,123.9,123.9,123.9,124,124,124,124,124,123.9,123.9
125,123.9,151.7,134.2,128.8,126.2,123.9,124,124,124,124,124,123.9,124.1,124.1,124.1,124.1,124.1,124,123.9
126,124,152,134.6,129.1,126.3,123.9,124.1,124.1,124.1,124.1,124.1,124,124.1,124.1,124.1,124.1,124.1,124,124
127,124.1,152.3,134.9,129.4,126.5,124,124.1,124.1,124.1,124.1,124.1,124.1,124.2,124.2,124.2,124.2,124.2,124.1,124.1
128,124.1,152.6,135.3,129.7,126.7,124.1,124.2,124.2,124.2,124.2,124.2,124.1,124.3,124.3,124.3,124.3,124.3,124.2,124.2
129,124.2,153,135.7,130.1,126.8,124.1,124.3,124.3,124.3,124.3,124.3,124.2,124.3,124.3,124.3,124.3,124.3,124.2,124.2
130,124.3,153.3,136,130.5,127,124.2,124.3,124.3,124.3,124.3,124.3,124.3,124.4,124.4,124.4,124.4,124.4,124.3,124.3
131,124.3,153.6,136.4,131,127.1,124.3,124.4,124.4,124.4,124.4,124.4,124.3,124.5,124.5,124.5,124.5,124.5,124.4,124.4
132,124.4,153.9,136.8,131.4,127.3,124.3,124.5,124.5,124.5,124.5,124.5,124.4,124.5,124.5,124.5,124.5,124.5,124.4,124.4
133,124.5,154.2,137.2,131.8,127.4,124.4,124.5,124.5,124.5,124.5,124.5,124.5,124.6,124.6,124.6,124.6,124.6,124.5,124.5
134,124.5,154.5,137.5,132.2,127.6,124.4,124.6,124.6,124.6,124.6,124.6,124.5,124.7,124.7,124.7,124.7,124.7,124.6,124.6
135,124.6,154.8,137.9,132.6,127.7,124.5,124.7,124.7,124.7,124.7,124.7,124.6,124.7,124.7,124.7,124.7,124.7,124.6,124.6
136,124.7,155.4,138.3,133,127.8,124.6,124.7,124.7,124.7,124.7,124.7,124.7,124.8,124.8,124.8,124.8,124.8,124.7,124.7
137,124.7,156,138.6,133.4,128,124.7,124.8,124.8,124.8,124.8,124.8,124.7,124.9,124.9,124.9,124.9,124.8,124.8,124.7
138,124.8,156.6,139,133.8,128.2,124.8,124.9,124.9,124.9,124.9,124.9,124.8,124.9,124.9,124.9,124.9,124.9,124.8,124.8
139,124.9,157.3,139.4,134.3,128.5,124.9,124.9,124.9,124.9,124.9,124.9,124.8,125,125,125,125,125,124.9,124.9
140,124.9,157.9,139.7,134.7,128.7,125,125,125,125,125,125,124.9,125,125,125,125,125,125,124.9
141,125,158.6,140.1,135.1,129.1,125.1,125,125,125,125,125,125,125.1,125.1,125.1,125.1,125.1,125,125
142,125,159.2,140.5,135.5,129.5,125.2,125.1,125.1,125.1,125.1,125.1,125,125.2,125.2,125.2,125.2,125.1,125.1,125.1
143,125.1,159.9,140.8,135.9,130,125.3,125.2,125.2,125.2,125.2,125.2,125.1,125.2,125.2,125.2,125.2,125.2,125.1,125.1
144,125.2,160.5,141.2,136.3,130.4,125.4,125.2,125.2,125.2,125.2,125.2,125.2,125.3,125.3,125.3,125.3,125.3,125.2,125.2
145,125.2,161.1,141.6,136.7,130.9,125.5,125.3,125.3,125.3,125.3,125.3,125.2,125.3,125.3,125.3,125.3,125.3,125.3,125.2
146,125.3,161.8,141.9,137.1,131.3,125.6,125.4,125.4,125.4,125.4,125.3,125.3,125.4,125.4,125.4,125.4,125.4,125.3,125.3
147,125.3,162.4,142.5,137.5,131.8,125.7,125.4,125.4,125.4,125.4,125.4,125.3,125.5,125.5,125.5,125.5,125.4,125.4,125.4
148,125.4,163.1,143.1,137.9,132.2,125.8,125.5,125.5,125.5,125.5,125.5,125.4,125.5,125.5,125.5,125.5,125.5,125.4,125.4
149,125.5,163.7,143.8,138.3,132.7,125.9,125.6,125.5,125.5,125.5,125.5,125.4,125.6,125.6,125.6,125.6,125.6,125.5,125.5
150,125.5,164.3,144.4,138.7,133.1,126,125.8,125.6,125.6,125.6,125.6,125.5,125.6,125.6,125.6,125.6,125.6,125.6,125.5
151,125.6,165,145.1,139.1,133.6,126.1,125.9,125.6,125.6,125.6,125.6,125.6,125.7,125.7,125.7,125.7,125.7,125.6,125.6
152,125.6,165.6,145.7,139.5,134,126.3,126,125.7,125.7,125.7,125.7,125.6,125.7,125.7,125.7,125.7,125.7,125.7,125.6
153,125.7,166.3,146.3,140,134.5,126.4,126.2,125.8,125.8,125.8,125.7,125.7,125.8,125.8,125.8,125.8,125.8,125.7,125.7
154,125.7,166.9,147,140.6,134.9,126.5,126.3,125.8,125.8,125.8,125.8,125.7,125.9,125.9,125.9,125.9,125.8,125.8,125.8
155,125.8,167.5,147.6,141.2,135.4,126.6,126.4,125.9,125.9,125.9,125.9,125.8,125.9,125.9,125.9,125.9,125.9,125.8,125.8
156,125.9,168.2,148.3,141.9,135.8,126.7,126.5,125.9,125.9,125.9,125.9,125.8,126,126,126,126,126,125.9,125.9
157,125.9,168.8,148.9,142.5,136.3,126.8,126.6,126,126,126,126,125.9,126,126,126,126,126,125.9,125.9
158,126,169.4,149.5,143.2,136.7,126.9,126.8,126,126,126,126,126,126.1,126.1,126.1,126.1,126.1,126,126
159,126,170.1,150.2,143.8,137.1,127,126.9,126.1,126.1,126.1,126.1,126,126.1,126.1,126.1,126.1,126.1,126.1,126
160,126.1,170.7,150.8,144.4,137.6,127.1,127,126.1,126.1,126.1,126.1,126.1,126.2,126.2,126.2,126.2,126.2,126.1,126.1
161,126.1,171.3,151.4,145.1,138,127.2,127.1,126.2,126.2,126.2,126.2,126.1,126.2,126.2,126.2,126.2,126.2,126.2,126.1
162,126.2,172,152.1,145.7,138.5,127.3,127.3,126.3,126.3,126.3,126.2,126.2,126.3,126.3,126.3,126.3,126.3,126.2,126.2
163,126.2,172.6,152.7,146.4,139.1,127.4,127.4,126.3,126.3,126.3,126.3,126.2,126.3,126.3,126.3,126.3,126.3,126.3,126.2
164,126.3,173.2,153.4,147,139.7,127.5,127.5,126.4,126.4,126.4,126.3,126.3,126.4,126.4,126.4,126.4,126.4,126.3,126.3
165,126.3,173.9,154,147.6,140.3,127.6,127.6,126.4,126.4,126.4,126.4,126.3,126.4,126.4,126.4,126.4,126.4,126.4,126.4
166,126.4,174.5,154.6,148.3,141,127.7,127.7,126.5,126.5,126.5,126.5,126.4,126.5,126.5,126.5,126.5,126.5,126.4,126.4
167,126.4,175.1,155.3,148.9,141.6,127.8,127.9,126.5,126.5,126.5,126.5,126.4,126.5,126.5,126.5,126.5,126.5,126.5,126.5
168,126.5,175.8,155.9,149.5,142.3,127.9,128,126.6,126.6,126.6,126.6,126.5,126.6,126.6,126.6,126.6,126.6,126.5,126.5
169,126.6,176.4,156.5,150.2,142.9,128,128.1,126.6,126.6,126.6,126.6,126.5,126.7,126.7,126.7,126.7,126.6,126.6,126.6
170,126.6,177,157.2,150.8,143.5,128.1,128.2,126.7,126.7,126.7,126.7,126.6,126.7,126.7,126.7,126.7,126.7,126.6,126.6
171,126.7,177.6,157.8,151.4,144.2,128.2,128.3,126.7,126.7,126.7,126.7,126.6,126.8,126.8,126.8,126.8,126.7,126.7,126.7
172,126.7,178.3,158.4,152.1,144.8,128.3,128.4,126.8,126.8,126.8,126.8,126.7,126.8,126.8,126.8,126.8,126.8,126.7,126.7
173,126.8,178.9,159.1,152.7,145.4,128.4,128.6,126.8,126.8,126.8,126.8,126.7,126.9,126.9,126.9,126.9,126.8,126.8,126.8
174,126.8,179.5,159.7,153.3,146.1,128.5,128.7,126.9,126.9,126.9,126.9,126.8,126.9,126.9,126.9,126.9,126.9,126.8,126.8
