600MHz / Lb(0.05) dB
,h2(m),1000,1000,1000,1000,1000,10000,10000,10000,10000,10000,10000,20000,20000,20000,20000,20000,20000,20000
,h1(m),1.5,15,30,60,1000,1.5,15,30,60,1000,10000,1.5,15,30,60,1000,10000,20000
D (km),FSL
0,-87.999986,-83.846673,-83.728401,-83.595072,-83.322116,0.000000,-103.864261,-103.852491,-103.839393,-103.813140,-102.947817,0.000000,-109.885513,-109.879612,-109.873051,-109.859915,-109.438039,-103.857114,0.000000
1,-91.017084,-86.475366,-86.457695,-86.437791,-86.397584,-85.625198,-103.901632,-103.896982,-103.891796,-103.881368,-103.510186,-87.617061,-109.895094,-109.892729,-109.890096,-109.884815,-109.709332,-106.279431,-87.752997
2,-95.000368,-90.106601,-90.103871,-90.100522,-90.094853,-90.385142,-104.009301,-104.004851,-103.999892,-103.989934,-103.637690,-93.442907,-109.922504,-109.920173,-109.917579,-109.912372,-109.739448,-106.387692,-93.650409
3,-98.012255,-92.959258,-92.958370,-92.957528,-92.956058,-93.280445,-104.182326,-104.178168,-104.173553,-104.164256,-103.839951,-96.692743,-109.967698,-109.965421,-109.962881,-109.957787,-109.788579,-106.556035,-97.080960
4,-100.317339,-95.177195,-95.177630,-95.178318,-95.179798,-95.449756,-104.412450,-104.408648,-104.404443,-104.395963,-104.102812,-98.943444,-110.030038,-110.027816,-110.025351,-110.020392,-109.855947,-106.778192,-99.474389
5,-102.162751,-96.968622,-96.969693,-96.970832,-96.973357,-97.191479,-104.690039,-104.686624,-104.682851,-104.675238,-104.415022,-100.635626,-110.108674,-110.106530,-110.104144,-110.099349,-109.940542,-107.044262,-101.263140
6,-103.695311,-98.465082,-98.466176,-98.467468,-98.470207,-98.649829,-105.005533,-105.002434,-104.998979,-104.992111,-104.764608,-101.984456,-110.202610,-110.200551,-110.198249,-110.193652,-110.041192,-107.344173,-102.723119
7,-105.003069,-99.747381,-99.748557,-99.749934,-99.752742,-99.910518,-105.349767,-105.347052,-105.344020,-105.337974,-105.140584,-103.105924,-110.310742,-110.308771,-110.306575,-110.302167,-110.156606,-107.668541,-103.942592
8,-106.142557,-100.868217,-100.869369,-100.870784,-100.873453,-101.013696,-105.713940,-105.711577,-105.708946,-105.703695,-105.533612,-104.050878,-110.431863,-110.429987,-110.427900,-110.423707,-110.285421,-108.009385,-104.970743
9,-107.151632,-101.863244,-101.864413,-101.865680,-101.868266,-101.994071,-106.091022,-106.088954,-106.086693,-106.082131,-105.936264,-104.880852,-110.564770,-110.562987,-110.561002,-110.557040,-110.426225,-108.350985,-105.866645
10,-108.056768,-102.757628,-102.758695,-102.759885,-102.762415,-102.876252,-106.475240,-106.473473,-106.471537,-106.467587,-106.342780,-105.605513,-110.708200,-110.706518,-110.704643,-110.700903,-110.577644,-108.693276,-106.659976
11,-108.877176,-103.569634,-103.571076,-103.572721,-103.575851,-103.678079,-106.862110,-106.860569,-106.858895,-106.855553,-106.748807,-106.264631,-110.860972,-110.859376,-110.857609,-110.854077,-110.738335,-109.036260,-107.370745
12,-109.627247,-104.314541,-104.314614,-104.316251,-104.319451,-104.412902,-107.248123,-107.246813,-107.245351,-107.242489,-107.152258,-106.856388,-111.022299,-111.020769,-111.019064,-111.015637,-110.907015,-109.377097,-108.004712
13,-110.318071,-105.087440,-105.000279,-105.001973,-105.005204,-105.091021,-107.630628,-107.629535,-107.628306,-107.625880,-107.549667,-107.398106,-111.190650,-111.189218,-111.187624,-111.184411,-111.082471,-109.713719,-108.588383
14,-110.958271,-105.909338,-105.636423,-105.638130,-105.641442,-105.720571,-108.007795,-108.006872,-108.005828,-108.003705,-107.939528,-107.903298,-111.364977,-111.363627,-111.362129,-111.359120,-111.263587,-110.037549,-109.121457
15,-111.554703,-106.762760,-106.229641,-106.231431,-106.234866,-106.307997,-108.378325,-108.377475,-108.376559,-108.374711,-108.320737,-108.375955,-111.544259,-111.543001,-111.541594,-111.538793,-111.449355,-110.351004,-109.608228
16,-112.112970,-107.647792,-106.785411,-106.787315,-106.790785,-106.858639,-108.741018,-108.740426,-108.739540,-108.738026,-108.692683,-108.810954,-111.727620,-111.726438,-111.725131,-111.722507,-111.638813,-110.657718,-110.064348
17,-112.637604,-108.534901,-107.308185,-107.310152,-107.313791,-107.376818,-109.095490,-109.094956,-109.094347,-109.092906,-109.055049,-109.222949,-111.914204,-111.913112,-111.911890,-111.909451,-111.831146,-110.957442,-110.493605
18,-113.132472,-109.417078,-107.801628,-107.803697,-107.807516,-107.866086,-109.441476,-109.440994,-109.440438,-109.439387,-109.407614,-109.614555,-112.103290,-112.102275,-112.101136,-112.098866,-112.026043,-111.249998,-110.888771
19,-113.600754,-110.268367,-108.268876,-108.271074,-108.275068,-108.329566,-109.778693,-109.778265,-109.777792,-109.776829,-109.750573,-109.987893,-112.294198,-112.293254,-112.292190,-112.290086,-112.222509,-111.535389,-111.259177
20,-114.045088,-111.085798,-108.712663,-108.714873,-108.719068,-108.783467,-110.107204,-110.106739,-110.106595,-110.105588,-110.083807,-110.344852,-112.486337,-112.485455,-112.484470,-112.482500,-112.419813,-111.809234,-111.611519
21,-114.467857,-111.862618,-109.134979,-109.137436,-109.141811,-109.204061,-110.429144,-110.428774,-110.428216,-110.427058,-110.407719,-110.684316,-112.679190,-112.678357,-112.677439,-112.675601,-112.617453,-112.073518,-111.947581
22,-114.871071,-112.576871,-109.538005,-109.540593,-109.545214,-109.605589,-110.743025,-110.742559,-110.742033,-110.741035,-110.722517,-111.009054,-112.872259,-112.871483,-112.870638,-112.868929,-112.814991,-112.331360,-112.268868
23,-115.256409,-113.244976,-109.923333,-109.926050,-109.930903,-109.989766,-111.048240,-111.047842,-111.047397,-111.046479,-111.028449,-111.321685,-113.065160,-113.064454,-113.063651,-113.062069,-113.012043,-112.582963,-112.569168
24,-115.625409,-113.863050,-110.292423,-110.295296,-110.300375,-110.358032,-111.345200,-111.344856,-111.344453,-111.343673,-111.325943,-111.623196,-113.257538,-113.256870,-113.256141,-113.254667,-113.208264,-112.828541,-112.854929
25,-115.979418,-114.420580,-110.646461,-110.649527,-110.654814,-110.711644,-111.634217,-111.633905,-111.633551,-111.632855,-111.615157,-111.914366,-113.449124,-113.448483,-113.447800,-113.446443,-113.403385,-113.068333,-113.129972
26,-116.319545,-114.939943,-110.986562,-110.989769,-110.995209,-111.051761,-111.915537,-111.915268,-111.914947,-111.914328,-111.897623,-112.195991,-113.639572,-113.638974,-113.638356,-113.637067,-113.597117,-113.302526,-113.395212
27,-116.646893,-115.401007,-111.313522,-111.316883,-111.322358,-111.379337,-112.189452,-112.189204,-112.188910,-112.188370,-112.173772,-112.468740,-113.828729,-113.828202,-113.827609,-113.826431,-113.789316,-113.531318,-113.651391
28,-116.962349,-115.830292,-111.627949,-111.631400,-111.636898,-111.695318,-112.456223,-112.456009,-112.455753,-112.455293,-112.442544,-112.733189,-114.016410,-114.015890,-114.015376,-114.014235,-113.979815,-113.754517,-113.899182
29,-117.266802,-116.211575,-111.930267,-111.933868,-111.939567,-112.000510,-112.716160,-112.715961,-112.715754,-112.715340,-112.704188,-112.989799,-114.202436,-114.201975,-114.201347,-114.200394,-114.168388,-113.970486,-114.139202
30,-117.560914,-116.557325,-112.220942,-112.224987,-112.231539,-112.295566,-112.969535,-112.969362,-112.969173,-112.968781,-112.959082,-113.239129,-114.386667,-114.386230,-114.385799,-114.384766,-114.355010,-114.181796,-114.367001
31,-117.845425,-116.868422,-112.501066,-112.505952,-112.513835,-112.581233,-113.216636,-113.216466,-113.216274,-113.215945,-113.207467,-113.482130,-114.569077,-114.568665,-114.568176,-114.567145,-114.539567,-114.388661,-114.587128
32,-118.120916,-117.148535,-112.771794,-112.777802,-112.787269,-112.858044,-113.457630,-113.457476,-113.457308,-113.457036,-113.449625,-113.718810,-114.749370,-114.748978,-114.748549,-114.747725,-114.722061,-114.591211,-114.801177
33,-118.387935,-117.402109,-113.034062,-113.041294,-113.052342,-113.126528,-113.692819,-113.692709,-113.692564,-113.692321,-113.685862,-113.949280,-114.927675,-114.927376,-114.926945,-114.926142,-114.902216,-114.789609,-115.009560
34,-118.647011,-117.801168,-113.288427,-113.296868,-113.309488,-113.387199,-113.922490,-113.922365,-113.922254,-113.922012,-113.916370,-114.173613,-115.103947,-115.103574,-115.103209,-115.102579,-115.080155,-114.984049,-115.212576
35,-118.898582,-118.286932,-113.535283,-113.544932,-113.559090,-113.640490,-114.146767,-114.146675,-114.146593,-114.146374,-114.141466,-114.392726,-115.278033,-115.277792,-115.277419,-115.276770,-115.255919,-115.174622,-115.410539
36,-119.143063,-118.761355,-113.774925,-113.785802,-113.801520,-113.886810,-114.365942,-114.365856,-114.365759,-114.365588,-114.361305,-114.606275,-115.449985,-115.449722,-115.449451,-115.448778,-115.429298,-115.361547,-115.603758
37,-119.380890,-119.224790,-114.007702,-114.019824,-114.037133,-114.126541,-114.580186,-114.580117,-114.580015,-114.579880,-114.576134,-114.814971,-115.619770,-115.619557,-115.619152,-115.618534,-115.600597,-115.544840,-115.792449
38,-119.612359,-119.677396,-114.233820,-114.247245,-114.266186,-114.360017,-114.789712,-114.789650,-114.789596,-114.789438,-114.786148,-115.018646,-115.787403,-115.787161,-115.786823,-115.786256,-115.769396,-115.724724,-115.976882
39,-119.837821,-120.119522,-114.453608,-114.468376,-114.489039,-114.587568,-114.994701,-114.994615,-114.994558,-114.994441,-114.991572,-115.217931,-115.953167,-115.952820,-115.952414,-115.951735,-115.935984,-115.901285,-116.157245
40,-120.057586,-120.551504,-114.667285,-114.683459,-114.705924,-114.809502,-115.195291,-115.195234,-115.195187,-115.195071,-115.192557,-115.412807,-116.117821,-116.117487,-116.117090,-116.116353,-116.100288,-116.074624,-116.332983
41,-120.271930,-120.973665,-114.875117,-114.892804,-114.917100,-115.026008,-115.391709,-115.391647,-115.391598,-115.391526,-115.389288,-115.603483,-116.280218,-116.279899,-116.279602,-116.278864,-116.262313,-116.244870,-116.503691
42,-120.481133,-121.386387,-115.077281,-115.096513,-115.122840,-115.237416,-115.584054,-115.584018,-115.583979,-115.583883,-115.581899,-115.790278,-116.440477,-116.440173,-116.439817,-116.439167,-116.422164,-116.412152,-116.670987
43,-120.685389,-121.789906,-115.274007,-115.294886,-115.323274,-115.443951,-115.772519,-115.772498,-115.772431,-115.772403,-115.770592,-115.972927,-116.598536,-116.598248,-116.597948,-116.597342,-116.579839,-116.576849,-116.835022
44,-120.884969,-122.184650,-115.465479,-115.488097,-115.518713,-115.645831,-115.957255,-115.957234,-115.957197,-115.957137,-115.955506,-116.152049,-116.754434,-116.754187,-116.753863,-116.753246,-116.735315,-116.739060,-116.995914
45,-121.080071,-122.570920,-115.651860,-115.676325,-115.709212,-115.843230,-116.138381,-116.138369,-116.138323,-116.138325,-116.136775,-116.327555,-116.908241,-116.907938,-116.907687,-116.907133,-116.889484,-116.898167,-117.153846
46,-121.270888,-122.949029,-115.833327,-115.859725,-115.895047,-116.036353,-116.316028,-116.316009,-116.316015,-116.315926,-116.314526,-116.499761,-117.059933,-117.059686,-117.059411,-117.058858,-117.042025,-117.054688,-117.308828
47,-121.457595,-123.319267,-116.010011,-116.038461,-116.076349,-116.225373,-116.490314,-116.490297,-116.490276,-116.490225,-116.488904,-116.668632,-117.209580,-117.209341,-117.209041,-117.208545,-117.192495,-117.208817,-117.461083
48,-121.640383,-123.681974,-116.182048,-116.212682,-116.253257,-116.410463,-116.661376,-116.661356,-116.661342,-116.661297,-116.660020,-116.834387,-117.357206,-117.356963,-117.356705,-117.356203,-117.340868,-117.360414,-117.610682
49,-121.819397,-124.037381,-116.349590,-116.382511,-116.425926,-116.591764,-116.829304,-116.829288,-116.829251,-116.829243,-116.827961,-116.997028,-117.502813,-117.502593,-117.502352,-117.501860,-117.487192,-117.509679,-117.757767
50,-121.994805,-124.385819,-116.512740,-116.548066,-116.594457,-116.769449,-116.994212,-116.994195,-116.994184,-116.994137,-116.992889,-117.156773,-117.646478,-117.646268,-117.646033,-117.645567,-117.631506,-117.656386,-117.902305
51,-122.166749,-124.727579,-116.671605,-116.709481,-116.759030,-116.943602,-117.156216,-117.156205,-117.156174,-117.156144,-117.154871,-117.313665,-117.788218,-117.788019,-117.787793,-117.787352,-117.773865,-117.800922,-118.044523
52,-122.335353,-125.062896,-116.826305,-116.866828,-116.919631,-117.114400,-117.315386,-117.315374,-117.315357,-117.315321,-117.314042,-117.467848,-117.928069,-117.927877,-117.927657,-117.927242,-117.914291,-117.943246,-118.184461
53,-122.500738,-125.392019,-116.976879,-117.020281,-117.076496,-117.281975,-117.471838,-117.471819,-117.471811,-117.471768,-117.470418,-117.619374,-118.066061,-118.065884,-118.065679,-118.065267,-118.052820,-118.083503,-118.322156
54,-122.663030,-125.715204,-117.123458,-117.169763,-117.229614,-117.446325,-117.625645,-117.625640,-117.625614,-117.625583,-117.624165,-117.768343,-118.202245,-118.202071,-118.201882,-118.201475,-118.189493,-118.221842,-118.457711
55,-122.822367,-126.032759,-117.266147,-117.315527,-117.379186,-117.607677,-117.776901,-117.776891,-117.776877,-117.776842,-117.775348,-117.914850,-118.336644,-118.336483,-118.336291,-118.335907,-118.324359,-118.357654,-118.591473
56,-122.978846,-126.344888,-117.404941,-117.457588,-117.525189,-117.766105,-117.925696,-117.925688,-117.925663,-117.925623,-117.924048,-118.059674,-118.469311,-118.469148,-118.468961,-118.468596,-118.457437,-118.491771,-118.722660
57,-123.132496,-126.651646,-117.539959,-117.596016,-117.667772,-117.921668,-118.072075,-118.072075,-118.072061,-118.072015,-118.070333,-118.202817,-118.600249,-118.600093,-118.599921,-118.599564,-118.588773,-118.623927,-118.852277
58,-123.283515,-126.953502,-117.671303,-117.730884,-117.806969,-118.074485,-118.216141,-118.216141,-118.216122,-118.216076,-118.214289,-118.343664,-118.729520,-118.729356,-118.729195,-118.728856,-118.718414,-118.754226,-118.979836
59,-123.431957,-127.250582,-117.798943,-117.862257,-117.942797,-118.224634,-118.357969,-118.357958,-118.357957,-118.357892,-118.355982,-118.482296,-118.857135,-118.856990,-118.856831,-118.856499,-118.846370,-118.882793,-119.106035
60,-123.577919,-127.543121,-117.923055,-117.990215,-118.075445,-118.372196,-118.497596,-118.497580,-118.497563,-118.497532,-118.495494,-118.618771,-118.983148,-118.983007,-118.982845,-118.982531,-118.972698,-119.009539,-119.230586
61,-123.721423,-127.831178,-118.043498,-118.114733,-118.204986,-118.517265,-118.635103,-118.635096,-118.635077,-118.635028,-118.632860,-118.753160,-119.107574,-119.107439,-119.107292,-119.106983,-119.097423,-119.134539,-119.353370
62,-123.862620,-128.115131,-118.160470,-118.235943,-118.331237,-118.659829,-118.770552,-118.770543,-118.770528,-118.770481,-118.768185,-118.885512,-119.230472,-119.230345,-119.230189,-119.229881,-119.220606,-119.257901,-119.474248
63,-124.001568,-128.395143,-118.274015,-118.353856,-118.454421,-118.800045,-118.904013,-118.903999,-118.903986,-118.903929,-118.901478,-119.015913,-119.351843,-119.351708,-119.351614,-119.351274,-119.342207,-119.379596,-119.593539
64,-124.138318,-128.671356,-118.384118,-118.468542,-118.574640,-118.937948,-119.035520,-119.035514,-119.035492,-119.035453,-119.032836,-119.144388,-119.471728,-119.471604,-119.471488,-119.471181,-119.462330,-119.499713,-119.711334
65,-124.272949,-128.943988,-118.490842,-118.580046,-118.691870,-119.073586,-119.165145,-119.165136,-119.165110,-119.165057,-119.162302,-119.271013,-119.590170,-119.590050,-119.589931,-119.589625,-119.580974,-119.618269,-119.827623
66,-124.405532,-129.213249,-118.594226,-118.688321,-118.806072,-119.207027,-119.292939,-119.292922,-119.292898,-119.292841,-119.289926,-119.395833,-119.707185,-119.707070,-119.706967,-119.706658,-119.698194,-119.735312,-119.942304
67,-124.536120,-129.479300,-118.694358,-118.793497,-118.917391,-119.338324,-119.418949,-119.418933,-119.418906,-119.418837,-119.415753,-119.518891,-119.822813,-119.822714,-119.822556,-119.822300,-119.813984,-119.850851,-120.055695
68,-124.664770,-129.742327,-118.791110,-118.895618,-119.025832,-119.467537,-119.543214,-119.543200,-119.543173,-119.543106,-119.539850,-119.640252,-119.937063,-119.936943,-119.936825,-119.936563,-119.928414,-119.964990,-120.167464
69,-124.791548,-130.002534,-118.884653,-118.994651,-119.131440,-119.594694,-119.665788,-119.665771,-119.665749,-119.665676,-119.662241,-119.759931,-120.050000,-120.049843,-120.049746,-120.049500,-120.041492,-120.077688,-120.277836
70,-124.916522,-130.260150,-118.974973,-119.090622,-119.234220,-119.719847,-119.786723,-119.786707,-119.786678,-119.786609,-119.782992,-119.878006,-120.161598,-120.161483,-120.161361,-120.161106,-120.153225,-120.189008,-120.386899
71,-125.039681,-130.515182,-119.062147,-119.183657,-119.334257,-119.843042,-119.906061,-119.906031,-119.905999,-119.905925,-119.902141,-119.994510,-120.271937,-120.271824,-120.271718,-120.271436,-120.263670,-120.298994,-120.494753
72,-125.161143,-130.768002,-119.146190,-119.273667,-119.431457,-119.964355,-120.023818,-120.023808,-120.023768,-120.023688,-120.019715,-120.109506,-120.380987,-120.380881,-120.380764,-120.380518,-120.372847,-120.407658,-120.601154
73,-125.280939,-131.018756,-119.226980,-119.360753,-119.526011,-120.083740,-120.140067,-120.140052,-120.140017,-120.139932,-120.135779,-120.222959,-120.488833,-120.488713,-120.488596,-120.488360,-120.480784,-120.515035,-120.706291
74,-125.399075,-131.267512,-119.304775,-119.444948,-119.617874,-120.201298,-120.254827,-120.254811,-120.254777,-120.254685,-120.250351,-120.334973,-120.595448,-120.595346,-120.595230,-120.594987,-120.587495,-120.621161,-120.810265
75,-125.515644,-131.514598,-119.379465,-119.526213,-119.707001,-120.317058,-120.368142,-120.368128,-120.368090,-120.368000,-120.363469,-120.445565,-120.700891,-120.700768,-120.700708,-120.700440,-120.693014,-120.726060,-120.913274
76,-125.630670,-131.760155,-119.451103,-119.604631,-119.793507,-120.431098,-120.480057,-120.480039,-120.479993,-120.479895,-120.475179,-120.554771,-120.805179,-120.805109,-120.804958,-120.804731,-120.797385,-120.829745,-121.014640
77,-125.744197,-132.004386,-119.519730,-119.680211,-119.877397,-120.543284,-120.590582,-120.590564,-120.590526,-120.590426,-120.585506,-120.662552,-120.908348,-120.908228,-120.908105,-120.907880,-120.900573,-120.932259,-121.115104
78,-125.856259,-132.246185,-119.585237,-119.752886,-119.958604,-120.653713,-120.699772,-120.699749,-120.699703,-120.699607,-120.694498,-120.769137,-121.010349,-121.010254,-121.010170,-121.009907,-121.002667,-121.033630,-121.214378
79,-125.966878,-132.485170,-119.654185,-119.822590,-120.036954,-120.762258,-120.807651,-120.807625,-120.807574,-120.807472,-120.802168,-120.874411,-121.111281,-121.111191,-121.111095,-121.110851,-121.103621,-121.133873,-121.312597
80,-126.076126,-132.719999,-119.732478,-119.889193,-120.112402,-120.868670,-120.914243,-120.914218,-120.914167,-120.914064,-120.908562,-120.978381,-121.211153,-121.211058,-121.210946,-121.210724,-121.203555,-121.233780,-121.409729
81,-126.183999,-132.947287,-119.822743,-119.952383,-120.184533,-120.972510,-121.019577,-121.019557,-121.019509,-121.019393,-121.013694,-121.081162,-121.309978,-121.309880,-121.309786,-121.309544,-121.302384,-121.332780,-121.505790
82,-126.290615,-133.174669,-119.971803,-120.012633,-120.254014,-121.074580,-121.123708,-121.123685,-121.123634,-121.123512,-121.117617,-121.182681,-121.407746,-121.407647,-121.407532,-121.407326,-121.400194,-121.430704,-121.600889
83,-126.395821,-133.405837,-120.132587,-120.070630,-120.321365,-121.175486,-121.226630,-121.226607,-121.226556,-121.226435,-121.220339,-121.283103,-121.504500,-121.504422,-121.504313,-121.504110,-121.496971,-121.527559,-121.694886
84,-126.499854,-133.635427,-120.334669,-120.134426,-120.385883,-121.274440,-121.328392,-121.328373,-121.328314,-121.328191,-121.321900,-121.382279,-121.600318,-121.600194,-121.600092,-121.599807,-121.592742,-121.623387,-121.787956
